0.0893008815408804
0.0877243384986327
0.0878417596628379
0.0901663410861899
0.086461911971797
0.0828707316959777
0.081020603301597
0.0774669739564626
0.0748318522968116
0.0744652836877446
0.0725525704088891
0.0679266533764188
0.0651347714823212
0.0620687081895719
0.0598210167671462
0.0598943304889596
0.0606870723589745
0.063143380062983
0.06586552451438
0.0677687010489346
0.0686132989660858
0.0682503066361316
0.0658619482352672
0.0621682479582128
0.0612133814350821
0.0634640530901018
0.0667619784786676
0.0671678861579759
0.0699389064239152
0.0754922718396511
0.0799316263117345
0.0842684607825828
0.0848263603241873
0.0869095429074219
0.0892216073538789
0.0915378441259675
0.0957852716189947
0.0981170056005723
0.10101379168198
0.107345593851279
0.111763490648686
0.113244666247924
0.114516033472542
0.118082179794571
0.122036948446864
0.123310699857557
0.124321594753455
0.126377359196825
0.131160632510261
0.13505698860371
0.137015597464513
0.13769270630988
0.139502303540981
0.1395631002859
0.140345709365095
0.141779797289347
0.14356376452014
0.145273225936082
0.149337071101316
0.152162927646986
0.156513471187767
0.164310355700297
0.170579572985121
0.17179073951134
0.169985910652388
0.169081112036838
0.169826766231867
0.169745703905309
0.169822593906235
0.16881467924293
0.16643943386548
0.164917131056444
0.165055413848807
0.165319462456639
0.16217829730252
0.162896533357684
0.165340920131316
0.165531655017335
0.165401716876235
0.166717191543244
0.167409201551581
0.165809412695099
0.164138098256361
0.159633774713728
0.16022803309298
0.161178727290479
0.161845703345025
0.165904780138109
0.164600630354956
0.164040942673796
0.165758748741001
0.167045613175108
0.16664447386795
0.163849611741258
0.162671227773574
0.163382907317031
0.166010876418457
0.167109986199139
0.165888686882101
0.16258360893531
0.15993299006617
0.15930237284927
0.159251112848653
0.160076041230683
0.162097234975962
0.164670963844176
0.167920013418199
0.1693999969244
0.166680236659078
0.162411351491374
0.160666723330822
0.159472246107131
0.156934876076564
0.155065674193582
0.156040806298352
0.158156771440121
0.162304063117988
0.166386385725306
0.168498774587962
0.165674706181849
0.160679836354236
0.157589931200735
0.153003353238506
0.151171702286208
0.147535818521478
0.14530422035506
0.148840564351149
0.156608242584257
0.161551852411253
0.161732454506451
0.161919613113357
0.168447514587344
0.168838521103683
0.165436883620844
0.157335419337203
0.15242101578963
0.152274388346003
0.153894442784124
0.155429262570055
0.157228130963818
0.164126773372504
0.173208138133065
0.175312778390977
0.171606561137028
0.167963524814072
0.165237804083562
0.168015976907727
0.168067832954864
0.16604902339566
0.165074487337409
0.164149423140219
0.168996473431167
0.173785111163272
0.177727958885188
0.177369138880865
0.17844202261472
0.179495832859973
0.183823726633039
0.181394837068896
0.1752913207163
0.175223967459675
0.172740241615801
0.168718119706883
0.169331451574737
0.171998759746404
0.173561593718719
0.172480365333601
0.17009498716533
0.166252871305093
0.169286748085826
0.171516558112688
0.174968263503106
0.182941577785203
0.186938069693812
0.191668890913593
0.198765420766523
0.201111459864552
0.198540115182413
0.199485444961243
0.200749063581117
0.20076217660453
0.1943058007128
0.193857573730656
0.196480774459931
0.192505144179481
0.192487262783916
0.195583724449125
0.186439774804088
0.181126020088913
0.178061148889202
0.175547024672869
0.175871870025619
0.174971839782219
0.172038098816645
0.164549370354339
0.155807156062979
0.134066359289451
0.122060194261097
0.125626936629645
0.138776914927592
0.155287999545097
0.17412128139988
0.19316556372232
0.208075071343788
0.222787883614049
0.225181606433583
0.223736789671992
0.219087030778769
0.215382601664376
0.211025501611889
0.209320212521578
0.206952119702353
0.200445675903043
0.198668861230476
0.202678466162499
0.203526044312244
0.207415247847467
0.211186434171967
0.208380247161418
0.211396242546587
0.213407899547565
0.211221600916576
0.20620348527473
0.20405294943487
0.20077230939535
0.202129507318676
0.201101923120251
0.199970030781034
0.193980359313531
0.190706275785717
0.185739420144489
0.182622096851122
0.179259202392006
0.181324503579677
0.187523387375282
0.191912673939785
0.193386100934279
0.186672828992942
0.176581165383001
0.174351951402658
0.171264430435232
0.17077030787114
0.176627060964949
0.189588688562952
0.206328058997161
0.216192032836918
0.217732813088037
0.211523200455093
0.203454518729987
0.198817872860178
0.194766544671839
0.194758796067094
0.19553604072762
0.197193050049907
0.197830223778513
0.197317027725819
0.194965624209121
0.197067284234438
0.196493291436826
0.196999930977813
0.195843004684806
0.196570777484271
0.194343351643485
0.193527960005755
0.193498157679815
0.193436764888378
0.1920050611502
0.191782735798685
0.192386530922238
0.191404842305761
0.190418385317133
0.182166121264234
0.172507187426947
0.166523476424632
0.166413803865171
0.168191214584257
0.170839449267322
0.175718090023767
0.18340828220943
0.189383648560482
0.198402428436569
0.199043774490806
0.1941758625717
0.189758561820812
0.185072444089942
0.179604909372915
0.175516030253891
0.17908217657592
0.175008794666385
0.171175023457411
0.169838091115724
0.170438906006683
0.170322080888996
0.171566029973749
0.174558779544685
0.176090619098022
0.175436756066889
0.176749846547824
0.177829286793385
0.176105520260992
0.174608251405746
0.169201513433637
0.167340656201918
0.168473740634172
0.172916671385368
0.171752592534136
0.169526358786387
0.165776630136565
0.163860936625115
0.165573378273651
0.161556024736884
0.1585775802824
0.164990444778257
0.170063396699833
0.174412152101058
0.17639162259002
0.1747811048962
0.167320986666797
0.161922593345951
0.159170646568614
0.151274222287443
0.147572773405644
0.149979609248592
0.154203790927385
0.157219786312555
0.161434431247047
0.166990776895377
0.169473906692732
0.168501158774037
0.164132137791173
0.159251112848653
0.155401248383671
0.154169816275813
0.15329601207924
0.15329601207924
0.15329601207924
0.157214421893885
0.159165878196463
0.161925573578545
0.160572547980851
0.15842260818751
0.153977293250238
0.146089809666849
0.136845724206653
0.133459583933304
0.138196365618273
0.142911093582045
0.144400017786028
0.150014179946682
0.154107231391338
0.160748977750418
0.16260327847043
0.165493508040131
0.158444065862187
0.152966994400858
0.147438066892393
0.146905797351098
0.150327104369057
0.147123950376982
0.147294419681361
0.149559992499351
0.147995370387479
0.147425549915498
0.15003563762136
0.150970238562851
0.155233759311886
0.157290715848293
0.15833737353532
0.156244058161266
0.149502772033545
0.146657245952755
0.150287169252297
0.156712550725049
0.162635464982446
0.163962264533313
0.165475626644567
0.165147205012704
0.161722321715632
0.159232039360051
0.155426282337461
0.153759140224354
0.153324026265624
0.149889606224252
0.144689696394169
0.139295475398955
0.13475658115823
0.133159772534343
0.137245671420773
0.140059010989548
0.142766254277975
0.148267763646574
0.155220050241953
0.161684770784947
0.168036838535886
0.167787095044505
0.161665697296345
0.149762052269227
0.137001888394581
0.131380573675701
0.127949133866922
0.129045859461529
0.134168283244167
0.144683735928981
0.157990474461374
0.170283337865274
0.175483843741875
0.174648782569025
0.173614641858893
0.169694443904691
0.164556522912565
0.161030907753814
0.159298796570158
0.15631677583656
0.153029579285333
0.153090376030251
0.155391115592851
0.158994812845565
0.157999415159156
0.157955903763283
0.155493635594086
0.154079813251473
0.155638474898157
0.156720895376312
0.157972593065809
0.158184189579986
0.156338829557756
0.155580062339313
0.155575293967163
0.15272619160726
0.150879043445473
0.145915764083357
0.145284550819939
0.145764964314099
0.14709951246971
0.147135275260839
0.14894010411979
0.149362105055106
0.148021596434307
0.139113085164199
0.132343784850095
0.128243580847213
0.126956120366588
0.130129472032722
0.136086360941692
0.143619196846389
0.149215477611479
0.156348962348576
0.158598441910558
0.161391515897693
0.162718911495079
0.159702320063391
0.161620993807434
0.158872027262691
0.14671983083723
0.139119045629388
0.135089175115725
0.129333749930114
0.127401963162656
0.128514782013271
0.136914269556316
0.147165673633298
0.154032725576487
0.152087229739097
0.145635026172999
0.142368095203411
0.138492004691601
0.137605683518134
0.136762873740539
0.143815296151077
0.144765394302058
0.149114149703282
0.154973286983167
0.157260317475834
0.154448170000097
0.154002923250547
0.152821559050269
0.150110143436211
0.151784438107543
0.153247732311217
0.150989908097971
0.148125904575098
0.147185939214938
0.146707313860335
0.147056001073837
0.149469989475011
0.151926297179019
0.154748577445576
0.157703776085827
0.160010476113615
0.162630696610295
0.164101143372195
0.163010974289295
0.159692187272571
0.155445951872581
0.151227730658976
0.14787496899068
0.146861689908706
0.146297829901913
0.144874470814999
0.150772947165125
0.152595061373122
0.157015342356603
0.161715169157406
0.160796661471923
0.161452312642612
0.165500660598357
0.165330787340496
0.160150547045534
0.15802742934554
0.159434695176446
0.159497280060921
0.157055873519882
0.156453866535886
0.159815568901964
0.162085910092105
0.161753912181129
0.159709472621616
0.159609932852975
0.160532612864091
0.16211332823197
0.159128923312297
0.158481616792872
0.158029813531615
0.160519499840677
0.165895839440327
0.175298473274526
0.180277249846131
0.179373047277099
0.186205528522197
0.189971350428027
0.184578917572369
0.16802968597766
0.148055571085879
0.122380867288216
0.0785607193184756
0.0120425238660006
-0.0512129129425183
-0.137438194446348
-0.227015045525437
-0.3053820497253
-0.36189023994091
-0.40971164819141
-0.463329012790801
-0.497865736230104
-0.484016595365595
-0.453040653829653
-0.397975492236077
-0.317612328244725
-0.211324120917811
-0.114287747655838
-0.0434088758717627
-0.0106167805930115
0.00603139472382006
0.020378830478052
0.0373566195197844
0.0605559421248367
0.0727880087838183
0.0737983076331982
0.0756418795158719
0.0784456823403457
0.0805807209707166
0.0807243681817494
0.0903207171345612
0.103648317295112
0.116738690941178
0.132790223692682
0.14340879242525
0.156253594905567
0.162225384977506
0.163491387783454
0.16428889802562
0.159177203080321
0.155699271643075
0.154943484657226
0.154849905353773
0.15551151698965
0.156314987697004
0.158166904230941
0.158489365397616
0.155650991875051
0.154899973261353
0.151972192760967
0.148120540156429
0.141035931233875
0.140787379835532
0.137953178638599
0.136674062809236
0.134252921849838
0.131221429255179
0.129821912029017
0.120400800752735
0.105182541034525
0.104364169164201
0.11251152902979
0.126980558273859
0.145897882687793
0.161125083103786
0.180238506822408
0.189336560885496
0.198293947970146
0.198627734020678
0.194556736297218
0.1844436150126
0.176872632130698
0.169397612738325
0.165298004781962
0.161110777987334
0.157528538409297
0.155876297459161
0.155504960477943
0.153449196034574
0.150052922970405
0.149293559705443
0.146983283398543
0.147369521542731
0.145296471750316
0.145385282681618
0.141905563104816
0.143015997769356
0.143646614986255
0.142059939153187
0.141617672636232
0.138459222133067
0.138244645386296
0.135288850699526
0.134308950222606
0.13600231838254
0.137478129563109
0.136449353271646
0.132404581595013
0.130338088314305
0.128839627366022
0.124101057541496
0.122732534734313
0.125091686855756
0.125091686855756
0.125091686855756
0.120526566568204
0.119506730974523
0.120241656332213
0.117042078619251
0.114759816498735
0.111932767860027
0.109130157128591
0.10527492824494
0.103636992411255
0.101965677972517
0.0990599511933268
0.0946825855591995
0.0948381537006085
0.0967061634905533
0.0957071895250308
0.091744672267994
0.0919938197128558
0.091120015516283
0.0898790466641243
0.0868034466270741
0.0849354368371292
0.0831735233275322
0.0821924307575739
0.0799483156142611
0.0762677283606205
0.0715518083038102
0.0683540187304042
0.0655639249758631
0.0636756496042788
0.0644451456600601
0.0630867556436963
0.0628781393621134
0.0608789993380307
0.0584244797735786
0.0571203299904263
0.0564521618428423
0.0543189113520278
0.0524872603997303
0.0480347929042331
0.0488072691926085
0.0460785682295046
0.0452870184525273
0.044113402856994
0.0441372447177463
0.0431042961006518
0.044377451464826
0.0456661040384894
0.0451529079857955
0.04717112149848
0.0470715817298391
0.04751623243287
0.0472950991743921
0.0510776103827489
0.0539273087891708
0.0554001397371459
0.0555092162500878
0.0579220125582233
0.06163955469603
0.0634616689040266
0.0660187084697137
0.0695067726977793
0.0720864620311811
0.0776469800051427
0.081626782611225
0.0841862063629873
0.0877672538479869
0.0921285262261064
0.0970482941923492
0.10020853283507
0.103155982870577
0.106543315236964
0.109881771788808
0.113252414852669
0.115089430223635
0.117630376533315
0.120626702383364
0.12220860984428
0.124625578478048
0.126677766642304
0.12632967547532
0.128867045505887
0.130668298085725
0.133439318351664
0.135112420929959
0.136689560018725
0.137621180727623
0.139980928895584
0.140869634255127
0.140872614487721
0.13947786563371
0.141600387287186
0.139259712607826
0.141979472873148
0.141784565661498
0.143754499406159
0.143498199403071
0.144841688256465
0.144690888487207
0.143308060563572
0.144027488711773
0.144405978251216
0.14458419616034
0.144873278721962
0.144982951281423
0.14435889057623
0.14561416454484
0.146415847112637
0.144553797787881
0.144424455693299
0.142453329855601
0.141980664966186
0.141172425886682
0.141327397981572
0.141907947290891
0.141190307282246
0.142971294280445
0.143834965686198
0.14310361660762
0.142559426135948
0.142537372414753
0.142427103808773
0.141667740543811
0.143237131027833
0.144246833830694
0.143188255213291
0.142875330790917
0.142836587767194
0.142170207759167
0.141044871931657
0.140302197969222
0.141136663095553
0.141877548918432
0.141754763335557
0.141495483099876
0.141124742165177
0.139859335405747
0.139446275168213
0.13769270630988
0.137795822357633
0.137434022120717
0.137662903983939
0.137528793517207
0.138158218641069
0.138021723988262
0.139233486560999
0.137127654210049
0.137055532581274
0.137187854908449
0.137692110263361
0.137389318631806
0.137205140257494
0.136877910718669
0.137113945140117
0.13813735701291
0.137453691655837
0.13673247536808
0.136923806300617
0.13712228979138
0.136313454665357
0.135164873023614
0.137149707931245
0.136821286299382
0.137548463052328
0.137639062123187
0.138743536322538
0.138546244924813
0.137177722117629
0.138309614456846
0.137488262353928
0.137805955148453
0.138168947478407
0.138195173525235
0.139081494698703
0.139380114004626
0.138475911435594
0.136531011644722
0.136886851416451
0.137375609561874
0.137140171186944
0.137941853754741
0.138061659105022
0.136873738393037
0.137530581656764
0.137279646072345
0.137202756071419
0.137189643048005
0.136520878853903
0.136029140475886
0.136968509789528
0.137398855376107
0.137414948632115
0.138052122360721
0.138729231206087
0.138338224689749
0.137950198406005
0.137034074906597
0.137500183284305
0.13725222793248
0.136165039082174
0.136606709552611
0.136474983271954
0.13601185512684
0.137618200495029
0.137543098633659
0.137037055139191
0.137037055139191
0.137124673977455
0.136383192108058
0.1376426384023
0.137611047936803
0.13770760747285
0.138696448647553
0.138854400975037
0.138406770039412
0.137847082358251
0.137269513281526
0.136290208851124
0.136611477924762
0.139144079583178
0.138896720277872
0.139066593535732
0.139267461212571
0.139095799815154
0.138328091898929
0.138595716785874
0.138646380739973
0.13962806935645
0.140038745407909
0.140217559363551
0.140891091929804
0.14163853426439
0.141378657982189
0.142077820548751
0.140926854720933
0.140424387505578
0.14157833356599
0.141562240309982
0.142135637061076
0.143222229864863
0.143222229864863
0.143222229864863
0.143429654053408
0.144818442442231
0.143871324523845
0.143297927772752
0.14297367846652
0.142942088001023
0.142421143343585
0.142214911248077
0.14130832449297
0.142430084041367
0.143630521730247
0.143113153351921
0.143379586145828
0.144963877792821
0.145449655705649
0.144445317321458
0.146848576885292
0.147184151075381
0.145528929892651
0.146718042697673
0.146410482693968
0.146840828280548
0.146488564787932
0.146573799440122
0.14470936592929
0.145730989662527
0.145413296868002
0.146057623154834
0.145852583152364
0.147159117121591
0.146723407116342
0.145696418964436
0.144732015697004
0.14566423245242
0.143946426385215
0.144731419650485
0.146043318038382
0.147517937125914
0.146716254558117
0.148363131089584
0.148019212248231
0.147470253404409
0.147938745968192
0.146966594096016
0.146818178512833
0.146202462458904
0.147907751549214
0.147650855499608
0.147889274107131
0.147677677592954
0.147956627363757
0.146597641300874
0.147570389219569
0.146423595717382
0.146446245485097
0.146811025954607
0.147730129686609
0.147107261074455
0.14716984595893
0.145940798037147
0.147645491080939
0.148111599458647
0.147076862701996
0.147226470378217
0.147760528059069
0.147957223410275
0.148063319690623
0.148088353644413
0.148592608999325
0.147368329449693
0.147230642703848
0.14696957432861
0.146416443159156
0.144934671513399
0.145618336870472
0.146101730597226
0.14622928455225
0.145125406399418
0.144911425699166
0.144464390810059
0.145078914770951
0.145385878728137
0.145500319659748
0.143415348936957
0.144816654302675
0.145638602452112
0.146582144091385
0.145664828498939
0.145678537568872
0.146686452232176
0.145457404310394
0.143848078709612
0.142841356139345
0.143001096606385
0.144345181506298
0.144358294529712
0.145307796634173
0.145056861049755
0.144945996397256
0.145964043851381
0.147083419213703
0.147665160616059
0.146678107580913
0.146896260606797
0.147144215958621
0.147752779454324
0.147915500153959
0.14733495084464
0.145935433618478
0.144513266624602
0.146133321062722
0.146985071538099
0.146923082700143
0.146458166415473
0.146772282930885
0.146033781294081
0.146137493388354
0.145873444780522
0.146705525720778
0.145015733839957
0.14617444827252
0.145847814780213
0.146523731532542
0.146917122234955
0.145328658262331
0.146204846644979
0.146421211531307
0.145396011518957
0.145567672916373
0.145156996864915
0.143693106614722
0.144251006156326
0.145131366864606
0.144648569184371
0.143907683361493
0.144796388721036
0.145698803150511
0.145595091056239
0.145461576636025
0.14550449198538
0.144197361969633
0.144363658948381
0.144796984767554
0.14420928290001
0.145006197095656
0.143761055917866
0.141315477051196
0.143878477082071
0.143656747777074
0.142453925902119
0.142359154505629
0.142847912651052
0.144346373599335
0.146226900366175
0.146279948506349
0.144720690813147
0.14540912454237
0.145738738267271
0.145205872679457
0.144767778488133
0.145731585709046
0.146816390373277
0.147088187585853
0.1483351169032
0.146876591071676
0.147510188521169
0.146368759437652
0.146680491766988
0.14655949432367
0.145019906165589
0.145202892446863
0.146190541528528
0.146443861299021
0.146961229677347
0.14578940222137
0.142211931015483
0.139772312614001
0.138546840971332
0.135921256055982
0.134314314641275
0.136742608158899
0.136860029323105
0.136361734433381
0.140764730067817
0.140054242617398
0.13930262795718
0.138461606319142
0.139442102842582
0.139588730286208
0.141243951468939
0.145676749429315
0.147056597120356
0.146924274793181
0.145669000824571
0.142563002415061
0.140380280063186
0.135501043260222
0.131986752985329
0.129356399697828
0.126733795015072
0.121530308905877
0.119401826787213
0.118318214216019
0.116198672795138
0.11956335539381
0.124029531959239
0.130365506454171
0.135037319068589
0.140880959138985
0.143709795917248
0.145698803150511
0.145838874082431
0.145582574079344
0.143783109639062
0.143358128471151
0.144212859179122
0.143257396609473
0.143486874519214
0.142976062652595
0.143525021496418
0.142376439854674
0.144844668489059
0.141679661474188
0.141786353801054
0.144997256397874
0.145023482444701
0.144953148955482
0.145803707337821
0.146591084789167
0.146510618509128
0.147870200618529
0.146453398043322
0.145216601516795
0.144168751736731
0.144226568249055
0.145352500123084
0.145797150826115
0.14683486781536
0.148715394582199
0.1493650852877
0.147684234104661
0.1481449780637
0.148623603418303
0.147136467353877
0.147111433400087
0.147907155502696
0.146230476645288
0.149378794357633
0.150066632040338
0.148272532018725
0.148396509694637
0.145995634316878
0.14530422035506
0.145419853379709
0.145131366864606
0.14484407244254
0.144162195225024
0.146387236879735
0.146588104556573
0.150417703439916
0.157353896779286
0.168430229238299
0.180468580778668
0.19477608141614
0.209142590658974
0.220323827305296
0.220960404987383
0.204031491760193
0.174932500711978
0.145962851758343
0.106600535702769
0.0451862865908488
-0.0312036313061275
-0.104599011492611
-0.189669154842991
-0.274071726092306
-0.33785466406997
-0.39001707911695
-0.430303863323195
-0.467374380513952
-0.482627806976772
-0.471928771964165
-0.441872530206744
-0.375127241030603
-0.263854296666896
-0.134429351619405
-0.0428533605162335
0.0152486580906699
0.0520730080691586
0.0621587112139119
0.0603848767739388
0.0732213346029919
0.0837171177526853
0.0889134513036551
0.0987929223529008
0.104981077311167
0.10679007849575
0.108871472939428
0.111997736930577
0.118511333288113
0.12308897055256
0.123753562421031
0.123265400322127
0.125955358261509
0.126898899900782
0.130643264131935
0.134319679059944
0.136468426760248
0.136936323277512
0.137749926775685
0.139224545863217
0.140472071227082
0.140196697735393
0.141006128907934
0.141389982866047
0.141160504956306
0.143095868002876
0.142831223348525
0.143660324056187
0.143232958702202
0.142546909159053
0.143047588234852
0.142321007528425
0.141416208912874
0.140923874488339
0.140935795418715
0.140798704719389
0.140669362624808
0.139708535636489
0.140484588203977
0.139479057726748
0.138499157249827
0.13737739770143
0.136650816995003
0.136824862578495
0.135896222102192
0.13554217047002
0.135190503023923
0.134598032784227
0.134137884871708
0.132072583684037
0.130994931578032
0.130223051336175
0.130851284366999
0.129281893882977
0.130941287391339
0.129909530867282
0.129351631325678
0.127536073629388
0.125787273143205
0.124721541967576
0.124302521264854
0.123887672887763
0.123698726141301
0.121446266346725
0.12179376146719
0.12086869727
0.12086869727
0.12086869727
0.11931301585591
0.118096484911023
0.116797103500021
0.115172876736269
0.115524544182365
0.115234269527706
0.113623751833886
0.113439573459574
0.113192214154269
0.111203802967525
0.109757794112896
0.107570899435389
0.105212343360465
0.105533016387584
0.104179990789889
0.102182638905363
0.101413142849582
0.098621260955484
0.0963008518577638
0.0940108411325027
0.0919360032005314
0.0903499234139828
0.0874191626810029
0.0865453584844301
0.0837743382184909
0.0830578903028834
0.0830376247212439
0.0819146730798093
0.0781893823372581
0.0757956595177245
0.0739163248439222
0.0715255822569826
0.0693571650215584
0.0665712435926489
0.0643670635660963
0.0630676821550944
0.0607305837548475
0.0592422555973834
0.0570237704543794
0.0545895164715667
0.0528526369157597
0.051257616431429
0.0492584764073463
0.0470793303345836
0.043541794245457
0.0440210156465787
0.0425392440008216
0.0392788695429408
0.0384777830216626
0.0380063102252853
0.0377148434775881
0.0374084755669207
0.0366956039304261
0.0362658543903654
0.0363993688105784
0.0354689401947189
0.0341880362258001
0.0329279938850396
0.0322282352719587
0.0318914689888321
0.0312936343304675
0.0310790575836966
0.0325632134155289
0.0325775185319803
0.0359243197350883
0.0368922992816328
0.0371921106805933
0.0392544316356697
0.0418615391089367
0.0449806505418599
0.0476884898768055
0.0497061073429712
0.0537240569262572
0.0575995513915481
0.0614619328334251
0.0651699382269309
0.0665527661505659
0.0711292113219752
0.0735521404209304
0.0775456520969453
0.0800281858477814
0.0845390659021218
0.0875771150084871
0.0918406357575221
0.0944632404402781
0.0976014253618032
0.10001362562342
0.103998792648171
0.106323970118042
0.108467949446195
0.112385167167803
0.114712728823749
0.116660608847214
0.119425072601446
0.121325268903407
0.123446002417326
0.126221791055416
0.126797571992585
0.128377691313945
0.130069271334323
0.131025329950491
0.132411734153239
0.131908074844846
0.133604423237374
0.133342162769099
0.134719030227546
0.135028974417326
0.134307758129568
0.135210172559043
0.135560051865584
0.136140005128384
0.136672870716199
0.138071195849323
0.137149111884727
0.136232988385318
0.135815755822153
0.136379615828945
0.134935395113873
0.13578714558925
0.135994569777795
0.136005894661652
0.135240570931503
0.135491506515921
0.136420146992224
0.135334746281474
0.134494916736474
0.133272425326398
0.134162322778979
0.135069505580605
0.13562204070354
0.135669724425045
0.135721580472181
0.134803072786697
0.135537998144388
0.134330407897283
0.133953706497396
0.133342162769099
0.133515016259553
0.132504121363654
0.132804528809134
0.132765785785411
0.132303849733335
0.131953374380276
0.130443588548134
0.130789295529043
0.130015031101111
0.129796878075227
0.129631773189518
0.130481735525338
0.130003110170735
0.130618826224664
0.129808799005604
0.128929630390362
0.1289403592277
0.128517762245865
0.127543226187614
0.126974001762152
0.126995459436829
0.127536073629388
0.127620712235059
0.128197089218746
0.127765551539129
0.126357093615185
0.127992049216276
0.127208248044044
0.126673594316673
0.127063408739973
0.1274001750231
0.128492728292075
0.129559651560742
0.129337326209226
0.128921881785617
0.128782406900216
0.129392162488957
0.129091158996959
0.128093973170993
0.128896847831827
0.129223481324134
0.129223481324134
0.12856544596737
0.128167882939325
0.129737273423347
0.133785025332573
0.135321633258061
0.134239212779905
0.133467928584567
0.132480875549421
0.131537929956666
0.131675020655992
0.132466570432969
0.133069173463484
0.131233946232074
0.129857674820146
0.130487099944007
0.132017747404307
0.132285968337771
0.133025066021093
0.133481041607981
0.133531109515561
0.1325214067127
0.13230146554726
0.130959168786903
0.131726876703128
0.131280437860541
0.131315008558632
0.132162586708377
0.132811085320841
0.131868139728086
0.134418026735547
0.133465544398492
0.133053676253995
0.132788435553126
0.132265702756131
0.131734625307873
0.132074371823594
0.133064405091334
0.133702174866459
0.133631841377239
0.134019867660984
0.133804694867694
0.132793203925276
0.132721678343019
0.131846682053409
0.132265702756131
0.132715121831312
0.133078114161267
0.133045331602732
0.133875028356913
0.134517566504188
0.133616940214269
0.133432165793439
0.133602635097818
0.133738533704106
0.133948342078727
0.133948342078727
0.133948342078727
0.134274379524515
0.134192721151438
0.134237424640349
0.134692804180718
0.132447496944368
0.132303849733335
0.131398455071265
0.131773964378114
0.133079306254304
0.133179442069464
0.132392660664637
0.133132354394478
0.132979170439144
0.133028642300206
0.132211462522919
0.132119075312504
0.131620184376262
0.131034866694792
0.131616608097149
0.132712737645237
0.132643596249055
0.132852212530638
0.132692472063598
0.132353917640915
0.13140620367601
0.13130606786085
0.131953374380276
0.13291658555467
0.133240238814382
0.132253781825755
0.131646410423089
0.131199375533983
0.131849662286003
0.131106988323568
0.131139174835584
0.130934134833114
0.130589619945242
0.130121723427978
0.131255403906751
0.130907312739767
0.131494418560793
0.131905094612252
0.131721512284459
0.132116691126429
0.132764593692373
0.13312639392929
0.133187190674208
0.133713499750316
0.133197323465028
0.133740321843662
0.134022847893578
0.1346320074358
0.133167521139088
0.133909003008485
0.13480664906581
0.134032980684397
0.133624092772495
0.133252159744759
0.13446153813142
0.135212556745119
0.13388158486862
0.134570614644362
0.133242623000458
0.13487161813636
0.134164706965054
0.134400741386502
0.135020033719544
0.135079638371424
0.134949104183805
0.134616510226311
0.134275571617552
0.133119241371064
0.133299247419744
0.133289710675443
0.132913009275557
0.13289631997303
0.132840887646781
0.132679955086703
0.133067385323928
0.134033576730916
0.133737937657587
0.13377131626264
0.133340970676061
0.132687107644928
0.132895723926511
0.134735719530072
0.135742442100339
0.134549753016204
0.135219113256826
0.134499089062105
0.13453663999279
0.133602039051299
0.133956090683471
0.133587733934848
0.133569256492765
0.133345739048211
0.134727970925328
0.134066359289451
0.133452431375078
0.132933274857196
0.133333222071316
0.133191959046359
0.132845059972413
0.132378951594705
0.131705419028451
0.132693068110116
0.13286115322842
0.132462398107338
0.133032218579318
0.13233603624535
0.13197125577584
0.132132188335918
0.131199971580502
0.131185666464051
0.132233516244115
0.131563559956975
0.130351797384238
0.131627336934487
0.132584587643693
0.132437364153548
0.132170931359641
0.131187454603607
0.130839959483142
0.131162420649817
0.1324010053159
0.131999866008743
0.132493392526316
0.132326499501049
0.132160202522302
0.13141097204816
0.132482663688977
0.1319509901942
0.13221623089507
0.132803932762615
0.133130566254922
0.132330075780162
0.132808701134765
0.132157222289708
0.132117287172948
0.133048311835326
0.131922976007816
0.132240072755822
0.132512466014918
0.13344647090989
0.132923142066376
0.13257624299243
0.133179442069464
0.132949368113204
0.131864563448973
0.131999866008743
0.131285206232692
0.132173911592235
0.131735221354392
0.133308784164045
0.132520810666181
0.131906882751809
0.132557765550347
0.131894961821432
0.131698266470226
0.132035032753352
0.131272689255797
0.130905524600211
0.13135077134976
0.131759659261663
0.132008210660006
0.130753532737915
0.130976454135949
0.130394116687073
0.130700484597741
0.129898802029944
0.130337492267787
0.129753366679354
0.130023375752375
0.130608693433844
0.131338850419384
0.131916419496109
0.131450311118401
0.129609719468322
0.12937070481428
0.126709357107801
0.125321164765497
0.123046651249725
0.121173873087629
0.121111288203155
0.122492327987233
0.12220384147213
0.121827140072243
0.123626604512525
0.123410239626198
0.122134104029429
0.122515573801467
0.122985854504806
0.123705878699527
0.125573888489471
0.129182354114336
0.130287424360207
0.13016583087037
0.126935854784948
0.123938336841862
0.120327487030922
0.116522922101369
0.113767995091438
0.110405696678841
0.105651629644827
0.102742326586524
0.102813852168781
0.100985777495596
0.0999528288785015
0.104494107305301
0.110517753424377
0.115928067675599
0.119145526784125
0.123927608004523
0.126830950597638
0.128469482477842
0.128403917360773
0.127266660602887
0.127277985486744
0.126809492922961
0.125938668958982
0.125341430347136
0.125673428258112
0.124956980342505
0.125246062904127
0.124800220108058
0.125083342204492
0.125476732906906
0.125422492673694
0.125694289886271
0.126327887335764
0.12706996525168
0.127356067580708
0.128628626898363
0.128606573177168
0.127914563168831
0.127136722461787
0.128653064805635
0.128512993873715
0.128991023181799
0.129348651093084
0.129796282028709
0.130159870405182
0.129897013890387
0.129511967839237
0.128763333411614
0.129339710395302
0.127711311305918
0.127741709678377
0.128309145964282
0.128717437829666
0.128652468759116
0.128747836202125
0.128732935039155
0.128246561079807
0.126909628738121
0.127673164328714
0.127697006189466
0.127194538974111
0.127785817120769
0.127526536885087
0.12825013735892
0.12793006037832
0.129734889237271
0.134833471159157
0.144107954991812
0.156097430717639
0.169815441348009
0.183662794072961
0.183662794072961
0.183662794072961
0.203193450354749
0.193439149074453
0.16667427619389
0.133519188585185
0.102173698207581
0.0501167833944301
-0.0237137107507838
-0.0962257499963939
-0.172374269053253
-0.256796509837688
-0.332916418661644
-0.392630147055405
-0.43544774478051
-0.480919537653868
-0.523539247934729
-0.522823992112159
-0.494979678986034
-0.447762661905606
-0.374155685204945
-0.268883737192599
-0.167737027136925
-0.0898438799195146
-0.0438052468067702
-0.0214272763046356
-0.00787019823434332
0.00963151569742151
0.0323379078314194
0.0491774140807884
0.0569838353376192
0.0602424216559436
0.0658184368393942
0.0711214627172306
0.0756335348646086
0.0798297023570183
0.0858616931273571
0.0903469431813888
0.0957775230142502
0.10101379168198
0.104544175212881
0.107677591762256
0.110611928774348
0.110998166918536
0.112000717163171
0.113437189273499
0.114216222073581
0.115253939062827
0.116369738146035
0.116819753267736
0.117746009557964
0.11862279398713
0.117843761187048
0.118405833054284
0.118048205142999
0.117316260017903
0.116450800472593
0.117535605136824
0.11814297653949
0.1182478807268
0.11771799537158
0.118606700731123
0.11763276071939
0.117490305601395
0.116927041641121
0.117163672109088
0.117226853040082
0.116099729073015
0.116550936287753
0.115540041391854
0.116155161399265
0.114837898592698
0.114247812539078
0.112765444846802
0.113100422990373
0.111937536232178
0.110788954590434
0.110487951098436
0.110837830404977
0.108072770604225
0.108510864795549
0.10799528455678
0.107691896878707
0.10590494941532
0.105765474529919
0.104470265444549
0.103111279381666
0.103464138920801
0.103635204271699
0.102523577514121
0.101797592854213
0.100727093306433
0.0993239998011589
0.0980967400189328
0.0972628709391202
0.0962233658103187
0.0949883574233481
0.0943839662532766
0.0932419411232401
0.0928592792581653
0.0925701966965433
0.0909686197005057
0.0886458264167102
0.0877255305916703
0.0862282617364242
0.0837850670558294
0.0836432079843531
0.0832271675142249
0.0814598895859587
0.0807648993450283
0.0803250170141479
0.0779497716366973
0.0766068788298224
0.0734651176291844
0.0714951838845234
0.0700289094482552
0.0694930636278467
0.0678908905852903
0.065657504279316
0.0637644605355812
0.0615769698115551
0.0584918330302039
0.0570297309195675
0.0543820922830215
0.0522905650485236
0.050197845720988
0.0486975966331478
0.0459975059029467
0.0439679675064048
0.0413429786375736
0.0383293674384794
0.0362861199720049
0.0334322492399513
0.0315386094496977
0.0295728480306683
0.0287723575559089
0.0263547928756229
0.0245696335517923
0.0231117037667875
0.0210952783936594
0.0199079537281935
0.0177574178883335
0.0162088890324699
0.0147867220385935
0.0135666148145932
0.0132542864387377
0.0117290033971075
0.0107353938502543
0.00946343057911761
0.00862717731322972
0.00718057241208224
0.00584483216343309
0.00484347401183534
0.00432193330787817
0.004440546565121
0.00535130564585991
0.00574648448782974
0.00732481566963383
0.00763952823156455
0.00836789707754816
0.0104248536139552
0.0119149699109757
0.0133150831836561
0.0160247106581581
0.0192582630226926
0.0212121035113458
0.0253337651889044
0.0290459429080418
0.0318610706163729
0.0318610706163729
0.0318610706163729
0.0395709323371568
0.0430274060997255
0.0471419152190584
0.0511652292210137
0.055060989267944
0.0583398411679079
0.0627088621507719
0.0662398417281916
0.0687265478046593
0.0718230094698679
0.0740671246131807
0.0781780574534008
0.0806492663203795
0.0837743382184909
0.0857412917305579
0.0884991989730834
0.0899934875957355
0.0924605241370826
0.09331704298461
0.0956189746402472
0.0969332572142192
0.0984865544422334
0.100077998647451
0.101643216805842
0.103234661011059
0.10466457660968
0.105203402662683
0.105295789873098
0.105373275920543
0.105568183132193
0.106482518492045
0.106923592915963
0.108542455261046
0.109640372948691
0.110062969930526
0.110092176209948
0.11003614783718
0.108491791306948
0.109307778991196
0.108678353867335
0.109549177831313
0.110023630860285
0.11117102040899
0.110719813194253
0.110575569936701
0.110512985052226
0.110319865980132
0.109913362254305
0.109369171782633
0.109019888522612
0.108867896660316
0.109223736432044
0.109732164112587
0.109610570622751
0.109413279225025
0.108215225722221
0.108738554565734
0.109392417596867
0.108386887119637
0.106993330358664
0.107873691066944
0.107328308502234
0.106896174776098
0.107235921291819
0.107197178268096
0.106481326399008
0.105342877548084
0.10517002405763
0.106021774533006
0.105491889177786
0.106762660355885
0.107290757571549
0.108068002232075
0.107911241997628
0.106784118030562
0.106186879418716
0.106428278258834
0.106007469416555
0.105224264290841
0.106322778025005
0.107057107336176
0.10659040291195
0.106459868724331
0.10685027919415
0.106347811978795
0.104841602425766
0.104400528001848
0.10446966939803
0.104508412421753
0.105223072197804
0.104791534518186
0.1051849252206
0.1058948166245
0.105057371265575
0.104244959860439
0.103780043575769
0.104017866136773
0.104308736837952
0.104253304511703
0.103815806366897
0.104781997773885
0.105665338714759
0.106146348255437
0.106569541283791
0.105860841972928
0.106126082673798
0.105683220110323
0.106887830124835
0.107185853384239
0.10790528153244
0.10743559687562
0.107709778274271
0.108293307816185
0.108025086882721
0.106424701979721
0.106971872683987
0.107570899435389
0.108163965721603
0.10828555921144
0.108742130844847
0.108126414790918
0.109474672016462
0.109112275733027
0.10795534944002
0.106877101287496
0.107442153387326
0.107394469665822
0.107395661758859
0.108333242932945
0.108437551073736
0.108571065493949
0.10873080596099
0.10936082713137
0.107919586648892
0.107717526879016
0.107717526879016
0.10975600597334
0.109727395740437
0.110427750400037
0.110526694122159
0.110867036684398
0.110148204582716
0.109378112480415
0.108909619916632
0.109221352245969
0.10898054945237
0.108470333632271
0.109174264570983
0.109923495045125
0.110405100632322
0.110756768078419
0.110554112262024
0.109676135739819
0.109212411548187
0.108810080147991
0.109489573179433
0.1090258489878
0.110286487375079
0.110451592260789
0.110423578074405
0.11055590040158
0.111122740640967
0.110806835985999
0.110558880634174
0.110661996681928
0.109761966438528
0.110427154353518
0.111553682274065
0.110609544588273
0.111097110640658
0.110459936912052
0.110883725986925
0.109578980157254
0.110819949009412
0.111233009246946
0.110541595285129
0.11125148668903
0.111000551104611
0.110943926685325
0.110517157377858
0.110610140634792
0.109221352245969
0.109494341551583
0.109947336905877
0.109928859463794
0.109082473407087
0.107942832463125
0.108354104561103
0.10858060223825
0.108878625497654
0.109262479455767
0.108687294565117
0.108444107585443
0.107409966875311
0.107685936413519
0.107508910597433
0.10793031548623
0.107861174090049
0.107979787347291
0.107792032693867
0.107051742917507
0.106784714077081
0.105741632669167
0.10640026407245
0.104708088005553
0.106519473376211
0.106361521048727
0.105094326149741
0.106233967093702
0.105430496386349
0.104850543123548
0.104185355208558
0.104144227998761
0.104721201028967
0.105027568939634
0.104931009403588
0.105000150799769
0.10535003010631
0.10618985965131
0.104711068238147
0.104399335908811
0.103986275671277
0.104087603579474
0.10283411775042
0.103318703570211
0.103896272646936
0.103949916833629
0.103767526598874
0.104240191488289
0.102867496355474
0.103601825666645
0.102329862395509
0.101827991226672
0.102357280535374
0.102284562860079
0.102649939376109
0.10198892378675
0.102318537511651
0.102031243089586
0.101527583781193
0.10204912448515
0.100505364001437
0.102071178206346
0.102771532865945
0.10251404076982
0.102791798447585
0.102973592635821
0.102446687513195
0.101217639591413
0.10153890866505
0.103033197287702
0.102038395647811
0.101814878203258
0.102520001235008
0.100612652374822
0.0998956084126959
0.10011852981073
0.100148928183189
0.098761331887404
0.0994837402681995
0.100107204926873
0.100480330047647
0.101123464241441
0.10100365889116
0.103685272179278
0.104399931955329
0.102741730540005
0.102337014953734
0.102592718910303
0.102090251694948
0.101200354242367
0.101338637034731
0.102350127977148
0.103530300084388
0.103145850079757
0.103067171939274
0.102537882630573
0.100916636099414
0.101418507268251
0.101691496573865
0.102307808674313
0.102420461466367
0.103144657986719
0.103276384267376
0.104163897533881
0.104411256839187
0.104876173123857
0.103344929617039
0.103479040083771
0.102826369145676
0.102930081239948
0.103413474966702
0.10381461427386
0.102920544495647
0.103054654962379
0.103902233112125
0.103801501250446
0.103890908228267
0.104155552882618
0.103876603111816
0.104618681027732
0.10503472149786
0.104972732659904
0.10522962870951
0.10511459173138
0.104178202650333
0.103600633573608
0.103475463804658
0.10223389890598
0.104116809858896
0.104112041486745
0.103713286365662
0.104423177769563
0.105162275452885
0.104766500564396
0.104737890331494
0.105338705222452
0.10418952753419
0.104513180793903
0.104646695214116
0.10610998941779
0.104960215683009
0.105264199407601
0.10560513801636
0.105190289639269
0.105212939406984
0.105518711271132
0.104417813350894
0.104898822891572
0.105613482667623
0.10610998941779
0.106134427325061
0.105015648009258
0.106114757789941
0.104696763121696
0.104270589860748
0.104793918704262
0.104572785445784
0.104773653122622
0.105296981966136
0.105375660106618
0.104781997773885
0.104191911720265
0.1050549870795
0.104240191488289
0.104682458005244
0.104955447310859
0.105242145686405
0.10434449962908
0.104950678938708
0.105681431970767
0.105426324060717
0.105350626152828
0.105235589174698
0.104800475215969
0.105691564761587
0.104383838699322
0.10493995010137
0.104803455448563
0.104969156380791
0.105424535921161
0.104960811729528
0.105079424986771
0.104388607071472
0.104532254282505
0.103784215901401
0.103818190552973
0.103740108459009
0.103771102877987
0.104286683116756
0.10417462637122
0.102757227749494
0.10161877889857
0.0967776890728103
0.095501553476042
0.0961387272046479
0.097689044200068
0.0994020818951228
0.100722920980802
0.100777757260532
0.101684344015639
0.102216613556935
0.103639972643849
0.103144061940201
0.1022440316968
0.101680767736526
0.0997811674810848
0.0999462723667946
0.0994777798030114
0.100579273769769
0.10046364074512
0.098139655368287
0.0965625162795205
0.095517050685531
0.0929218641426401
0.0916260590107511
0.0890052424675515
0.0891018020035984
0.0908321250476986
0.092064749248594
0.0922399869251236
0.093233000425458
0.0932067743786304
0.0944173448583299
0.0926876178607485
0.0927549711173738
0.0930702797258234
0.0975811597801637
0.0983482716498699
0.0987422583988021
0.0978094455968673
0.0951278323087492
0.0921601166916033
0.0871896847712618
0.0831836561183519
0.0798624849155527
0.0766992660402377
0.072285541568463
0.0714737262098463
0.070635684804402
0.0717741336553256
0.0708896006214143
0.0726145592468452
0.0778585765193196
0.0837546686833702
0.0874185666344841
0.0906598676037631
0.0940376632258491
0.0968104716313447
0.0974464532669131
0.0962430353454394
0.0969368334933321
0.096641790466522
0.0974142667548974
0.0962203855777247
0.096315753020734
0.0971531983796595
0.0979614374591634
0.0981754181594155
0.097729575363347
0.0970471020993116
0.0974190351270479
0.0975328800121403
0.0985521195593023
0.0988030551437205
0.0990975021240118
0.0992214797999239
0.0986236451415593
0.100645434933357
0.100300323998967
0.100120913996805
0.100014817716458
0.0993228077081213
0.0997609018994453
0.100506556094474
0.100646627026394
0.10144890564071
0.101145517962637
0.100691926561824
0.0993538021270993
0.100194227718619
0.0996327518979015
0.0994795679425678
0.09978355166716
0.100341451208764
0.0995874523624721
0.099886071668395
0.0997150063174971
0.099743020503881
0.0991422056129224
0.0991469739850729
0.0985348342102568
0.098490726767865
0.0989878295645511
0.0990963100309741
0.101062667496522
0.106120718255129
0.115217580225179
0.12722493734657
0.140917914023151
0.154551882094369
0.167948623651102
0.175214430715374
0.165603180599592
0.139073150047439
0.104497683584414
0.0735169736763207
0.0224643972473618
-0.0512135089890372
-0.124570146151799
-0.202364349647087
-0.284764800639725
-0.36427084973703
-0.425408533264224
-0.474463757808656
-0.525879922614088
-0.574761697621548
-0.575022169950267
-0.548349684280119
-0.502650201636577
-0.437527351084632
-0.344297926938287
-0.237498311698235
-0.151777881595836
-0.101630699828947
-0.0754088253270179
-0.0501060545570915
-0.0263237984566448
0.00310659445602828
0.01871943696969
0.0179511330069462
0.0189095758091898
0.0279927287093078
0.0350368064685829
0.0404441404872108
0.0443488412319233
0.0510537685219966
0.0594568323441544
0.0657862503273785
0.0694483601389361
0.0741154043812042
0.0785023067596324
0.080026397708225
0.0817495681940995
0.0833630661205132
0.085281143818038
0.0854200226569203
0.0857818228938368
0.0854939324252525
0.0852382284686838
0.0862932308069743
0.0878924236169366
0.0867521866264566
0.0862091882478223
0.0871819361665173
0.0872087582598636
0.085722218241956
0.085414658238251
0.0844663482268272
0.0855445963793512
0.0861811740614383
0.0855177742860048
0.0859946115010514
0.0865250929027907
0.0865072115072264
0.0844240289239918
0.0842028956655139
0.0834113458885367
0.0832092861186607
0.0824946263426097
0.0837373833343248
0.0829863647206264
0.0826883414612224
0.0826406577397177
0.0817090370308205
0.0804638958530302
0.0798761939854853
0.0790250395566272
0.0778550002402068
0.0773698183738969
0.0765097232472567
0.0759404988217949
0.0763607116175546
0.0760233492879092
0.0753623336985509
0.0739240734486667
0.0727468815740206
0.0709951008552433
0.0705075348028582
0.0699699008428932
0.0692784868810757
0.0686723075714478
0.0685316405930091
0.0671714624370888
0.0650906640399294
0.0647425728729454
0.0633663014610173
0.0621950700515592
0.0616729333010832
0.0610816551544255
0.0592398714113082
0.0590765546651548
0.0569993325471082
0.0562208957935447
0.0541389053033477
0.0539648597198558
0.0517308773673627
0.0504034817699768
0.0498360454840714
0.0491291343127649
0.0471085366140052
0.0458484942732447
0.0441151909965504
0.0411200572395393
0.040397052812225
0.0380873725518432
0.0349026960018511
0.0346404355335755
0.032948259466679
0.0304633415297677
0.0299602782678936
0.0289171968599793
0.0257098705422724
0.0229877260908754
0.0209671283921156
0.0180596134733693
0.0155222434428028
0.013001562714763
0.0107711566413828
0.00931620708897198
0.00619709565604873
0.00429749540060704
0.00213742281644616
-0.0013172628065661
-0.00212490583955119
-0.00680208287263904
-0.00786662195523047
-0.00898301708495821
-0.0107133401290584
-0.0125139966623779
-0.0141179578444907
-0.0157994050740486
-0.0179386160300512
-0.0195401930260888
-0.0221043851500017
-0.0227415588786076
-0.0233972100492966
-0.0244581728527752
-0.0256502658903916
-0.0266486438093953
-0.0278896126615539
-0.0275689396344351
-0.029626492217361
-0.0294590031455759
-0.0296425854733688
-0.0300043857102854
-0.0295245682626448
-0.0279694828950742
-0.0284564529009405
-0.0259053738004415
-0.0235676793536758
-0.0218737151472229
-0.0210261369974777
-0.0192791246508509
-0.0166535397355008
-0.0129187122486487
-0.00962555523223343
-0.00517010750414223
-0.00267624886944877
-0.000143051164513965
0.00354826492646514
0.00659287054453737
0.0111693157159466
0.0153702515805068
0.0196814560510464
0.0226831463197644
0.0272226366070076
0.0309741533963863
0.0348728936759107
0.0367468639310436
0.0405722904887546
0.0432688049398428
0.045760279388461
0.0480717477883992
0.0505763352604312
0.0530111852897627
0.0568550892895567
0.0576818058111436
0.0590419839670639
0.0606495214282896
0.0614243819027402
0.0623744800537205
0.063544519370141
0.0648546296184813
0.0658202249789506
0.0677645287233029
0.0690269552501387
0.0701981866595968
0.0704753482908426
0.0703907096851718
0.0706678713164176
0.0701820934035889
0.0710856999261022
0.0719493713318552
0.0737124769344898
0.072978743669837
0.0734287587915371
0.0735330669323286
0.0733131257668884
0.0729239073901066
0.0735151855367643
0.0739461271698627
0.07331729809252
0.0730604020429137
0.0737238018183472
0.073109277857456
0.0743973343846004
0.0740653364736243
0.0742536871735677
0.0720131483093677
0.0733065692551815
0.0731015292527114
0.0724959459896023
0.0728672829708198
0.0734537927453271
0.0732398120450749
0.0733029929760686
0.073447832280139
0.0729149666923245
0.0723028269175085
0.0726914492477714
0.0708919848074895
0.0705272043379789
0.0707179392239975
0.0711804713225927
0.0711804713225927
0.0711804713225927
0.0713145817893245
0.0716877069100984
0.07151187318705
0.0720578517982783
0.0729346362274452
0.0740957348460835
0.0719970550533599
0.0715172376057193
0.0708419168999096
0.0733995525121155
0.0726014462234314
0.0714004124880329
0.0708896006214143
0.0710374201580787
0.0701934182874463
0.0694710099066508
0.069544919674983
0.0706684673629364
0.0709694708549346
0.0702172601481986
0.0696402871179923
0.0697022759559483
0.0692492806016541
0.0693386875794754
0.0686192594312739
0.0704729641047673
0.0710404003906727
0.0711774910899986
0.0718945350521249
0.070567139454739
0.0691425882747875
0.0696569764205189
0.0697684371195361
0.0691610657168705
0.0686132989660858
0.0706678713164176
0.0713139857428057
0.0711023892286288
0.070784696434104
0.0712424601605487
0.071148284810577
0.0717353906316031
0.0716286983047364
0.0714111413253714
0.0714331950465673
0.0733745185583256
0.0733506766975733
0.0747597306680358
0.0745004504323543
0.0734472362336202
0.0736957876319632
0.0741022913577904
0.0716757859797223
0.0724697199427748
0.0735402194905543
0.0749927848568898
0.0750249713689055
0.0741392462419565
0.0753051132327453
0.0743895857798559
0.07448256903679
0.0753349155586857
0.0747978776452396
0.075424322536507
0.0769382806942798
0.0777012202383542
0.0776475760516615
0.0770372244164019
0.0776416155864734
0.0778144690769278
0.0769490095316183
0.0777304265177758
0.077335247675806
0.077335247675806
0.0789576863000019
0.0783282611761404
0.0783282611761404
0.0783282611761404
0.080651054459936
0.0791215990926741
0.0776410195399546
0.0779765937300436
0.0764918418516924
0.0767719837155323
0.0770855041844254
0.0786763523431244
0.0792831276992712
0.0798249339848678
0.079358229560641
0.0778073165187021
0.07704318488159
0.0761550755685658
0.0762665362675829
0.0763982625482395
0.0766855569703051
0.0776910874475345
0.0790155028123263
0.0794375037476425
0.0795251225859073
0.0800341463129695
0.0796312188662552
0.0793278311881818
0.0791937207214499
0.0798189735196797
0.0807768202754045
0.0799214935209147
0.0799214935209147
0.0799214935209147
0.0799214935209147
0.0799214935209147
0.0798928832880119
0.0787496660649378
0.0790947769993278
0.0784039590840291
0.077739367215558
0.0791001414179971
0.0789415930439941
0.079156169790765
0.0783509109438552
0.0792479609546615
0.0781470630344228
0.07832349280399
0.0782531593147706
0.0779861304743446
0.0789058302528656
0.0801348781746481
0.0801944828265289
0.0811654426056674
0.0811654426056674
0.0811654426056674
0.081176171443006
0.0809216595794749
0.0815498926102987
0.0808757639975266
0.0813216067935952
0.082474956807489
0.0808638430671505
0.0819075205215836
0.0821215012218358
0.0816774465653237
0.0817358591241669
0.0834792951916808
0.0833386282132421
0.0827002623915985
0.0830912689079367
0.0835305551922983
0.083388696120822
0.0835186342619222
0.084224353340191
0.0846231084612737
0.0822800495958387
0.0832849840265493
0.0820583202908421
0.0822848179679892
0.0830483535585825
0.0835871796115851
0.0844633679942331
0.0841391186880015
0.0841176610133244
0.0847268205555464
0.0836277107748641
0.0840336184541724
0.0845635038093929
0.0826078751811832
0.0851553780025694
0.0870382889554845
0.0865990026711229
0.0850951773041698
0.0849926573029348
0.0839048724061099
0.0852143866079314
0.0845921140422957
0.0845837693910324
0.0857091052185422
0.0859105689418994
0.0854623419597557
0.0874608859373195
0.087015043141251
0.0871390208171631
0.0865006549955195
0.0863647563892312
0.0869166954656476
0.0859767301054871
0.0867825849989158
0.0869178875586853
0.0872206791902398
0.087027560118146
0.0871998175620815
0.087282071981677
0.0885057554847903
0.0871604784918402
0.0866270168575069
0.0869238480238733
0.0882697210633422
0.0884705887401806
0.0889957057232506
0.0891107427013806
0.0885135040895348
0.0891018020035984
0.0892293559586234
0.0889361010713698
0.0892686950288647
0.0884527073446163
0.0883764133902089
0.0882244215279128
0.0889897452580625
0.0888896094429027
0.0888973580476472
0.0889146433966927
0.0883299217617418
0.0870400770950409
0.0863129003420949
0.0894075738677471
0.088416348506969
0.0883352861804111
0.0897753345698517
0.0897824871280774
0.0894159185190104
0.0901973355051679
0.0891947852605325
0.0889814006067992
0.0892490254937441
0.0894469129379884
0.0902277338776271
0.0906688083015452
0.0901401150393623
0.088938485257445
0.087816725709048
0.0882417068769582
0.0882071361788674
0.0886881457195456
0.0899583208511258
0.0890189515374841
0.0882750854820115
0.0895488368927046
0.0909137834207753
0.0886887417660644
0.0891065703757489
0.089286576424429
0.0898373234078078
0.0896746027081731
0.0902080643425064
0.0892299520051422
0.0896114217771795
0.0882029638532357
0.0894641982870338
0.0884145603674126
0.0901430952719564
0.089420090844642
0.0876951322192111
0.0898033487562357
0.0909239162115951
0.0899875271305474
0.0901222336437981
0.0905567515560092
0.08956612224175
0.0885367499037683
0.0886446343236726
0.0892806159592409
0.0895732747999757
0.0893491613089038
0.0896227466610368
0.0887966261859687
0.0884139643208938
0.0877565250106484
0.0868606670928797
0.0862205131316797
0.0861001117348804
0.0848269563707061
0.0859391791748022
0.0849711996282577
0.0852328640500145
0.0853437287025128
0.0868940456979329
0.085473666843613
0.0862026317361154
0.0854820114948763
0.0840073924073449
0.0845462184603475
0.0855279070768246
0.0857114894046175
0.0849664312561072
0.0861096484791813
0.0849396091627609
0.0852918726553765
0.0826436379723117
0.0831550458854492
0.0834429363540335
0.0825429061106332
0.0850594145130413
0.085927258244426
0.0863987310408033
0.0859356028956894
0.0851607424212387
0.0855237347511929
0.0861752135962502
0.085150609630419
0.084165344734829
0.0851982933519236
0.0856530768457743
0.0854659182388685
0.0865304573214599
0.0854283673081836
0.0838899712431397
0.0839269261273058
0.0836426119378343
0.0843149524110499
0.085091601025057
0.0856953961486097
0.0849312645114976
0.0848317247428566
0.0840258698494279
0.0831729272810134
0.0837665896137464
0.0849837166051527
0.0853335959116931
0.0847965579982469
0.0820601084303985
0.0818705656374175
0.0798809623576358
0.0787043665295084
0.0777030083779107
0.0718581762144776
0.073155769485923
0.0737410871673926
0.0740140764730068
0.0758761257977636
0.077409753490657
0.0770980211613203
0.0772744509308876
0.0766682716212597
0.0779521558227725
0.0790619944407933
0.0796091651450593
0.0827849009972693
0.0846046310191907
0.0837558607764078
0.0822860100610268
0.0808316565551348
0.0772571655818421
0.0737643329816262
0.0681036791925048
0.0670141061561234
0.0614136530654017
0.0566172667285522
0.0541788404201079
0.0544369285627518
0.0546395843791466
0.0609582735250322
0.0653833228806642
0.0697451913053025
0.0744932978741286
0.0789702032768969
0.0804895258533389
0.0823962786670063
0.0826501944840186
0.0827592709969605
0.0815260507495464
0.0817066528447453
0.08108914865126
0.0817740061013706
0.0802850818973877
0.081132660047133
0.081132660047133
0.081132660047133
0.0807213879491553
0.0811559058613665
0.0821000435471587
0.0818592407535602
0.0836128096118939
0.0830423930933944
0.0819444754057497
0.0820857384307073
0.0835478405413438
0.0827384093688022
0.0841111045016175
0.0861561401076484
0.086697946393245
0.0871265038402681
0.0863111122025385
0.0861442191772722
0.0857246024280313
0.0840455393845486
0.085237632422165
0.0870484217463042
0.0874638661699136
0.0877767905922879
0.0867581470916447
0.0855845314961113
0.0852441889338719
0.0864565475531277
0.086446414762308
0.0866067512758674
0.0858867270811471
0.0847423177650354
0.0854599577736804
0.0862050159221907
0.0863975389477657
0.0862842901091921
0.0863266094120275
0.0849580866048439
0.0844895940410607
0.0838816265918763
0.0843024354341549
0.0841611724091974
0.0845450263673099
0.084908018697264
0.0871062382586286
0.0937497727572647
0.102520001235008
0.114639415101935
0.129346266907009
0.14391900824535
0.155165810008742
0.159151573080012
0.146428960136051
0.12011350633067
0.092257272274169
0.0578337976734397
-0.000251531630937055
-0.0739473192629003
-0.147421377589867
-0.228598145079392
-0.314347781461213
-0.383918927183023
-0.436038426880649
-0.479562339730542
-0.520569744178026
-0.542525117698326
-0.533969465967353
-0.512784780595873
-0.454663688500367
-0.351362270279201
-0.222061898954141
-0.122334375659749
-0.0590574811765529
-0.0173765441628151
-0.00242173700591767
-0.00116050257211954
0.00619709565604873
0.0183659813840367
0.0232005146980899
0.0300312078036318
0.0383096979033587
0.0408297825848797
0.0424093058597214
0.0440192275070223
0.0500702917659631
0.0549262827546934
0.0564462013776542
0.0545334880987988
0.0571906634796457
0.0596261095554959
0.0638783054206735
0.0655663091619383
0.068379648730713
0.0693971001383186
0.0704592550348347
0.0709539736454455
0.0719690408669759
0.0719416227271107
0.0717824783065889
0.0715345229547647
0.0717008199335122
0.0730592099498761
0.0734955160016437
0.0731426564625092
0.0725627031997088
0.0722992506383956
0.0718557920284023
0.0712484206257368
0.0725895252930552
0.0729674187859796
0.0730919925084105
0.0728863564594217
0.0729721871581301
0.071132787601088
0.0714367713256802
0.0720375862166388
0.0707310522474113
0.0704854810816623
0.0704932296864068
0.0700503671229323
0.068702705943907
0.068777211758758
0.0682246766358229
0.0675225338366668
0.0668311198748493
0.066589721034732
0.0665932973138448
0.0650942403190422
0.064538724963513
0.0637430028609041
0.0624746158688803
0.0629246309905804
0.0624889209853317
0.0609779430601529
0.0596380304858721
0.0583732197729611
0.0589466165240546
0.0571280785951708
0.0570112534774844
0.0553506678760848
0.0553315943874829
0.0559485025344494
0.0543361967010733
0.0533062283165727
0.0529331031957988
0.0497281610641672
0.0494635164098163
0.0498944580429146
0.0498801529264632
0.0477898177850029
0.0474691447578841
0.0468999203324223
0.0463783796284651
0.0459051186925314
0.0435304693615996
0.0434494070350417
0.0414997388720201
0.0402504253685981
0.038504605115009
0.0369018360259337
0.0343537371580287
0.0329977313277401
0.0299578940818184
0.0295692717515554
0.0267797740435331
0.0259816677548489
0.0248646765786024
0.023280980978129
0.0216656949121588
0.0204557204789782
0.018228294638192
0.0157958287949358
0.0135821120240822
0.0112915052523023
0.0096666824420312
0.00751614660217125
0.00635564403005171
0.00459253842741709
0.00285685096464765
-0.00153958815808155
-0.00321149864333852
-0.00594675611814929
-0.00868678196511054
-0.0101876270994696
-0.009011627317861
-0.00842511754335374
-0.00949859732372729
-0.0141876952871913
-0.0173789283488903
-0.0194352888387786
-0.0225412872482881
-0.0233197240018516
-0.0257432491473257
-0.0286453996474027
-0.030226115015282
-0.0298309361733122
-0.0293022429111293
-0.0314199961924548
-0.0322157182950638
-0.0328773299309409
-0.0333976785418604
-0.0340163748283833
-0.0340682308755196
-0.0336140434281878
-0.0327271262082012
-0.0317132510797085
-0.0307643450217658
-0.0293803250050932
-0.0290137563960262
-0.0257337124030247
-0.0247752696007812
-0.0243753223866609
-0.0216645028191212
-0.0192075990685939
-0.0163930674067816
-0.0133848206263567
-0.0103050482636748
-0.00669598659229119
-0.00302016771080109
-0.000896453964287515
0.00389277981433628
0.00769972892996418
0.0112110389722632
0.0161874313577928
0.01976967093583
0.0245678454122359
0.0275337728898255
0.0301939285032664
0.0337219278480921
0.036904220212009
0.0397741842000704
0.0426232865599735
0.044794087981473
0.047736769644829
0.0506198466563042
0.0524097743522852
0.0540900294888055
0.0569510527790848
0.0589954923385969
0.0604695153796095
0.061888106094373
0.0622326209822441
0.063345439832859
0.0645655470568594
0.0658643324213424
0.0667435010365845
0.0676065763958188
0.0684577308246768
0.0692063652522999
0.0694805466509517
0.0708890045748955
0.0709539736454455
0.0714004124880329
0.0720697727286545
0.073463329489628
0.074361571593472
0.0740647404271055
0.0731718627419308
0.0719118204011703
0.0724524345937293
0.0716644610958649
0.0718283738885372
0.0729703990185736
0.0728577462265189
0.0735431997231483
0.0742989867089971
0.0746840327601472
0.073534855071885
0.0728392687844358
0.0713360394640016
0.0710469569023796
0.0705552185243629
0.071117290391599
0.0709223831799487
0.0708735073654064
0.0701367938681595
0.0699204289818322
0.0688815198995495
0.069460877115831
0.0680947384947227
0.0687986694334351
0.068805225945142
0.0669568856903178
0.0670188745282739
0.0682705722177711
0.0671571573206374
0.0666344245236426
0.066316135682599
0.0684124312892474
0.0672638496475041
0.0661909659136493
0.0661033470753845
0.0657826740482657
0.0648695307814516
0.06577552149004
0.0658005554438299
0.0650006610155894
0.0652301389253305
0.0646513777555678
0.0646513777555678
0.0646513777555678
0.0663447459155018
0.0665628989413856
0.0661552031225208
0.0653916675319275
0.066223152425665
0.0660914261450083
0.0653940517180028
0.0658923466077264
0.0659632761434646
0.0654310066021689
0.0665569384761975
0.0676876387223767
0.0676876387223767
0.0676876387223767
0.0675416073252687
0.0684291205917741
0.0672131856934054
0.0676840624432638
0.0678873143061774
0.0690895401346135
0.0699758613080813
0.0696140610711647
0.0696766459556396
0.0701755368918821
0.0703787887547956
0.070884236202745
0.0701230847982269
0.0711166943450802
0.0700032794479465
0.0700366580529997
0.0717735376088068
0.0713306750453323
0.0706958855028016
0.0731533852998478
0.0720787134264366
0.0718867864473804
0.0717735376088068
0.0720292415653755
0.0723087873826966
0.0724601831984738
0.0731784192536377
0.0732791511153163
0.0747037022952678
0.0746089308987773
0.0759071202167416
0.0743526308956898
0.0743746846168857
0.0733816711165513
0.0740939467065271
0.0747555583424042
0.0750488132296578
0.0754803509092749
0.0759404988217949
0.0761962027783636
0.0754404157925148
0.0750571578809211
0.0751406043935543
0.0737500278651748
0.0745594590377163
0.0751441806726671
0.0746351569456049
0.0751978248593598
0.0755697578870961
0.074361571593472
0.0743651478725848
0.074743637412028
0.0732326594868492
0.0733167020460012
0.074405082989345
0.075076231369523
0.074616083457003
0.0750416606714321
0.0745451539212649
0.0744378655478794
0.0730007973910329
0.0733983604190779
0.0733822671630701
0.0739801018214347
0.0742364018245222
0.0758552641696053
0.0746852248531848
0.0750094741594165
0.0751721948590511
0.0740861981017826
0.0745380013630392
0.0746077388057397
0.0733411399532723
0.0743746846168857
0.0740081160078187
0.0736183015845181
0.0745868771775814
0.0741058676369032
0.0738763897271621
0.0736129371658489
0.0737762539120023
0.0738364546104019
0.073609360886736
0.0723970022674802
0.0751084178815386
0.0741338818232872
0.0750428527644697
0.0757169813772418
0.0753730625358894
0.0744682639203386
0.0745004504323543
0.0743383257792384
0.0734430639079885
0.07448256903679
0.0758689732395379
0.0762266011508228
0.0765705199921751
0.0762248130112664
0.0751924604406906
0.07523775997612
0.0747639029936675
0.0750035136942284
0.0745296567117759
0.0747913211335327
0.0753355116052045
0.0755483002124191
0.0753510088146935
0.0768476816234209
0.0750517934622518
0.0748860925300232
0.0754749864906056
0.0755721420731714
0.0767189355753583
0.0755584330032388
0.0768166872044429
0.0762128920808902
0.0753635257915885
0.0750333160201688
0.074756154388923
0.0751298755562157
0.0749790757869572
0.0754904837000947
0.0761121602192116
0.0760752053350455
0.0758051962620254
0.0753617376520321
0.0740963308926023
0.0739669887980209
0.0743711083377729
0.0735300866997345
0.073183783672307
0.074116000427723
0.0743287890349375
0.0737625448420697
0.0743430941513889
0.0749963611360027
0.0743597834539155
0.0728726473894891
0.0726223078515897
0.0729048339015047
0.0718736734239666
0.072705158317704
0.0735700218164947
0.0723129597083282
0.0737798301911152
0.0729793397163558
0.07162691016518
0.0717091645847755
0.070955761785002
0.070452102476609
0.0710773552748388
0.0718540038888459
0.0716430034211878
0.0724244204073453
0.0716787662123163
0.0707417810847498
0.0707244957357044
0.0715917434205703
0.0718563880749211
0.0715965117927208
0.0716811503983915
0.0730985490201174
0.0735521404209304
0.0734901515829744
0.0731289473925766
0.0720965948220008
0.0725418415715506
0.0729912606467319
0.0722533550564474
0.072223552730507
0.0730854359967036
0.0731295434390954
0.072938212506558
0.0728535739008872
0.0730866280897412
0.0715607490015923
0.071828969935056
0.0731873599514198
0.0723624315693893
0.0731140462296064
0.0738048641449051
0.0735807506538332
0.0740224211242701
0.0737738697259271
0.0734281627450183
0.0728827801803088
0.0728088704119766
0.0710809315539517
0.071449884349094
0.0717514838876109
0.0718975152847189
0.0719326820293286
0.0717181052825576
0.0721168604036403
0.0706875408515383
0.0719583120296373
0.0711810673691115
0.0713563050456411
0.071639427142075
0.0725036945943468
0.0718486394701766
0.0726330366889282
0.0729262915761818
0.0711870278342995
0.0702929580560873
0.0711852396947431
0.0710827196935081
0.0715351190012835
0.0724840250592262
0.0727546301787651
0.0725782004091979
0.0722742166846057
0.0723219004061103
0.0708568180628798
0.0706148231762437
0.0698733413068463
0.0699585759590359
0.0693404757190318
0.0697320782818888
0.0698000275850329
0.0703328931728474
0.0695443236284642
0.069178351065916
0.0690358959479208
0.0686371408268381
0.0679171166321178
0.0684309087313305
0.0694412075807104
0.0694209419990709
0.0697118127002493
0.0694519364180489
0.0692755066484817
0.0699424827030281
0.0692397438573532
0.0688940368764445
0.0680154643077212
0.0681763968677994
0.0685995898961532
0.0679922184934877
0.068180569193431
0.0681132159368057
0.0676077684888564
0.0674575647661167
0.0670111259235294
0.066664226849583
0.0673329910436858
0.0670749029010419
0.067627438023977
0.0680953345412415
0.0673091491829335
0.0675928673258862
0.0667953570837208
0.0655853826505402
0.0658261854441387
0.0652146417158415
0.0645274000796557
0.0653034526471439
0.0650441724114624
0.065511472882208
0.066108115447535
0.0659167845149975
0.064917810549475
0.0644964056606776
0.0629305914557685
0.0599253249079376
0.0591874193176531
0.0581145355837984
0.0551933115951194
0.055654651600677
0.0571894713866081
0.0560420818379023
0.0566756792873954
0.0588327716389622
0.0584411690761052
0.0583446095400583
0.0593221258309037
0.0593686174593708
0.0603139472382006
0.063532002393246
0.0655335266034039
0.0652998763680311
0.0645870047315365
0.0619387700484717
0.057432062319763
0.0540298287904058
0.0506717027034405
0.0475031194094562
0.0443649344879311
0.0398570346661847
0.0389844225626496
0.0390988634942607
0.0387460039551263
0.038159494180619
0.0422000935316197
0.0491142331497947
0.0520825448134595
0.0557714767183634
0.0606775356146736
0.0625544861024006
0.0634515361132069
0.0637954549545592
0.0649368840380769
0.0635230616954639
0.0637012796045875
0.0631719902958858
0.0628537014548423
0.0616318060912855
0.0632196740173905
0.0628435686640225
0.0626915768017264
0.0627631023839834
0.0632166937847965
0.0631898716914501
0.0640368537946765
0.0644701796138501
0.0652319270648869
0.065670021256211
0.0658071119555368
0.0656950552100009
0.0665319045224076
0.0666219075467476
0.0655078966030951
0.0650972205516363
0.0669258912713398
0.0670474847611767
0.0670009931327096
0.0672411998797893
0.0673985561607547
0.0675278982553361
0.0663858731252996
0.0668037017349841
0.0665605147553104
0.0664812405683089
0.0669360240621596
0.0664842208009029
0.0670182784817551
0.0668293317352929
0.065847047072297
0.0649857598526192
0.0645589905451525
0.0629901961076493
0.0646656828720192
0.0647682028732542
0.0643485861240132
0.0636029319289842
0.0638073758849354
0.0642472582158158
0.0642365293784773
0.0618797614431097
0.0621390416787912
0.0612503363192482
0.0610601974797484
0.0609725786414836
0.0607585979412315
0.0618118121399656
0.06303489959656
0.066266663821538
0.073255309254564
0.0852948528879705
0.0998413681794844
0.112838758568616
0.126800552225179
0.135446206980492
0.13021589877795
0.10684014640333
0.0737232057718284
0.0429892591225218
-0.00180900118458285
-0.0716811503983915
-0.146810429908088
-0.219739701716864
-0.302856004578591
-0.382328675070843
-0.446742230265406
-0.493139087335955
-0.538214509274305
-0.589184831283668
-0.597359013242604
-0.571757623166755
-0.530872408255626
-0.465722735610334
-0.376139924066058
-0.270500811398126
-0.182852766853901
-0.128597036432867
-0.102466953094834
-0.0803721046891337
-0.0587976048943525
-0.0339126627341107
-0.0157403964686866
-0.0132620350434822
-0.0141084211001898
-0.00624179914495935
0.000780224893119918
0.00676035961632247
0.0100582850048882
0.0154769439073734
0.0241017370345279
0.0317043103819263
0.0375133797542309
0.0420332005063534
0.0450450235658912
0.0477260408074904
0.0488525687280379
0.0502407610703422
0.0502407610703422
0.0502407610703422
0.0529003206372643
0.053168541570728
0.0548720425214818
0.0558000869512662
0.0569468804534531
0.0569629737094609
0.057910687674366
0.0583982537267511
0.0579476425585321
0.0568735667316397
0.0575822660425026
0.0578677723250118
0.0570356913847555
0.0577968427892736
0.0575518676700434
0.0581139395372796
0.0578796932553879
0.0576973030206326
0.0562787123058691
0.0558972425338319
0.0562441416077783
0.057506568134614
0.0572758981318352
0.0574624606922222
0.0566649504500568
0.0572216578986237
0.0571006604553056
0.0567931004516006
0.055421597411823
0.0550383395002293
0.0536572997161507
0.0531333748261183
0.0537759129733936
0.0533467594798517
0.0525027576092193
0.0516814055063016
0.0515073599228096
0.050735479680953
0.0498050510650934
0.0493741094319951
0.0489997922181835
0.0480657873232111
0.0479871091827284
0.0477445182495735
0.0472104605687214
0.0464379842803459
0.0457298810160018
0.0440174393674659
0.0436168961068268
0.0420773079487452
0.0417256405026484
0.0404793072318205
0.0401073742040842
0.03974438187413
0.0392180727980224
0.0380963132496254
0.0361931367150708
0.0351101201903963
0.0332474748191207
0.0316154994506239
0.0296050345426839
0.0284832749942869
0.0275528463784273
0.0258249075204024
0.0243079691300355
0.0236731795875048
0.020509364665671
0.018010737658827
0.0160801429844073
0.0155758876294956
0.0140225904014814
0.0129956022495749
0.010596515011372
0.00873863801224685
0.00672042449956232
0.00447809749580592
0.00261902840364318
5.72204658055861E-05
-0.00327050724870053
-0.00493943750136346
-0.00627160147089976
-0.00855803591704797
-0.01042246942788
-0.012858511550249
-0.0157243032126788
-0.0185722134795443
-0.0208532835070233
-0.0220996167778512
-0.0242990284322534
-0.026599767994853
-0.0281578335950176
-0.0299221312906899
-0.0315398015427353
-0.033880476222095
-0.0367325588145922
-0.038000945806616
-0.0394976186153434
-0.0415748407333899
-0.0429183295867836
-0.0443255954176897
-0.046279435906343
-0.0472384747551053
-0.0475645122008934
-0.0493592082690249
-0.0505119622363999
-0.0507575334021489
-0.0510597289871846
-0.0523454013282539
-0.0525081220278885
-0.051248079687128
-0.051465636666493
-0.0500601589751433
-0.0484407005835415
-0.0478655156928916
-0.0470608528925005
-0.0455194765948625
-0.0427514365615173
-0.0408613730503765
-0.0378894851075989
-0.0339251797110057
-0.030322674551329
-0.0270664724190798
-0.0270664724190798
-0.0270664724190798
-0.0205284381542728
-0.0171881934628717
-0.0133824364402814
-0.00928461662347515
-0.00497579633901076
-0.00119805350280446
0.0032687191091441
0.00628352240127592
0.00942111127628222
0.0124716773595425
0.0156390685604892
0.0197577500054538
0.0236827163318057
0.0258350403112221
0.0294423138430493
0.0322282352719587
0.0350683969340798
0.0367504402101565
0.0384163902302254
0.0399351167601486
0.0419670393427657
0.0430905870307192
0.0436890177356026
0.0459080989251255
0.0472652968484517
0.0489556847757917
0.0498199522280636
0.0508159459609921
0.0516694845759254
0.0519818129517809
0.0524437490038573
0.0524967971440312
0.0523966613288714
0.0530737701742375
0.0538075034388904
0.0546962087984334
0.0550997322916665
0.0557184285781894
0.0558549232309965
0.0551420515945019
0.05537808601595
0.0560098953258866
0.0559145278828773
0.0563180513761105
0.0571513244094043
0.0577485630212501
0.0583970616337134
0.0573271581324527
0.0573355027837161
0.0567954846376758
0.0572449037128572
0.0566399164962669
0.0566536255661995
0.0574767658086736
0.0571960278983149
0.0578755209297563
0.0592446397834587
0.0590282748971313
0.0577163765092345
0.0577580997655511
0.0572305985964058
0.0583565304704345
0.058730847684246
0.0589561532683555
0.0585371325656334
0.0598257851392967
0.0592631172255417
0.0590896676885686
0.0596797537421887
0.0598770451399142
0.0592207979227064
0.0588536332671205
0.0589507888496862
0.0595963072295555
0.0591212581540654
0.0596219372298643
0.0593310665286859
0.0580948660486777
0.0586539576833198
0.0585514376820848
0.0579023430231026
0.0585925648918825
0.0591766904803145
0.0586539576833198
0.0587773393127131
0.0591248344331782
0.058494813262798
0.0582748720973578
0.0588142941968792
0.0582391093062293
0.0579673120936527
0.0591451000148177
0.058945424431017
0.0590771507116736
0.0603741479366002
0.0606262756140561
0.0602018904926646
0.0608372760817142
0.0605732274738821
0.0605154109615577
0.0603568625875548
0.0605303121245279
0.0609850956183786
0.0613313986458062
0.0622481181917331
0.0625318363346858
0.0623887851701719
0.0623476579603741
0.0629419163396259
0.0626790598248315
0.062195666098078
0.0625228956369037
0.0635200814628698
0.0649058896190989
0.0637668447216564
0.063137419597795
0.0637829379776642
0.0645446854287011
0.0645631628707841
0.0653523284616862
0.065703995907783
0.0661784489367543
0.0658613521887484
0.066549189871453
0.0664150794047212
0.06577552149004
0.0654387552069134
0.0659269173058173
0.0666147549885219
0.0669139703409636
0.0677412829090694
0.0678795657014329
0.0674331268588456
0.0672274908098568
0.0662463982398985
0.0658208210254694
0.0658142645137625
0.0656157810229994
0.0655418712546672
0.0656753856748802
0.0663834889392244
0.0669699987137316
0.0674235901145446
0.0664639552192635
0.06586552451438
0.0652158338088791
0.0657540638153629
0.0656616766049476
0.0664228280094657
0.0671577533671562
0.0669294675504527
0.0674563726730791
0.0681734166352053
0.0674641212778236
0.0675380310461558
0.0675851187211417
0.0675857147676605
0.0674182256958754
0.0672876915082564
0.0686293922220936
0.0681251368671819
0.0686055503613413
0.0686532340828459
0.0694811426974705
0.0687134347812456
0.0683140836136441
0.0677865824444988
0.0681424222162273
0.0688850961786623
0.0695097529303733
0.0687068782695387
0.0677955231422809
0.0683367333813588
0.0678342661660035
0.0684130273357662
0.0682985864041551
0.0680166564007588
0.0678235373286649
0.0681877217516567
0.0678718170966884
0.0688242994337439
0.0693565689750396
0.0688797317599931
0.0674516043009286
0.0672447761589022
0.0677567801185584
0.0678426108172668
0.0685000501275122
0.0693225943234675
0.0686937652461249
0.0690585457156355
0.0689774833890776
0.0671452363902612
0.0667184670827946
0.0678795657014329
0.0674367031379584
0.0677621445372277
0.06810606337858
0.068351634544329
0.0683677278003368
0.0677913508166493
0.0673520645322877
0.0661677200994158
0.0673627933696262
0.0676107487214504
0.0675165733714787
0.0674098810446121
0.0681924901238072
0.0677257856995804
0.0679969868656381
0.0684142194288039
0.0685030303601063
0.0680011591912698
0.0679171166321178
0.0676971754666776
0.0677204212809111
0.0687044940834634
0.0687050901299822
0.0689381443188363
0.0693565689750396
0.0687986694334351
0.06854117733731
0.068963774319145
0.0667870124324575
0.0677234015135052
0.0679463229115394
0.0678223452356273
0.0681364617510392
0.0681948743098824
0.0686377368733569
0.0689232431558661
0.0681936822168448
0.06801606035424
0.0667625745251864
0.0667053540593808
0.0672906717408504
0.0685793243145137
0.0678438029103044
0.0682121596589279
0.067201860809548
0.0676131329075256
0.0678086361656947
0.0674885591850947
0.0677824101188672
0.0669640382485435
0.0676423391869472
0.0681555352396411
0.0681555352396411
0.0681555352396411
0.0679814896561491
0.0677323422112873
0.0670516570868083
0.0679558596558404
0.0674003443003111
0.0679719529118482
0.0687527738514869
0.0687944971078035
0.0692772947880381
0.0698345982831238
0.0689995371102735
0.0681531510535659
0.0685352168721219
0.0677245936065428
0.0676685652337748
0.0683689198933744
0.0687474094328176
0.0694441878133044
0.0699991071223148
0.0700318896808493
0.0695538603727651
0.0689798675751528
0.0689303957140917
0.0690567575760791
0.0690615259482295
0.0691497408330132
0.0688850961786623
0.0694769703718389
0.0697177731654374
0.0695067726977793
0.0695252501398623
0.0689435087375055
0.0683719001259685
0.0685662112910999
0.0684893212901737
0.0687873445495778
0.0703674638709383
0.0702399099159133
0.071163782020066
0.0703764045687204
0.069299348509234
0.0696545922344437
0.0688958250160009
0.0686484657106955
0.0688159547824806
0.0693601452541524
0.0694537245576053
0.0701892459618146
0.0692468964155789
0.0694584929297558
0.0686371408268381
0.0690770231577186
0.0683975301262772
0.0692200743222325
0.0695240580468247
0.0698542678182444
0.0694483601389361
0.0697338664214452
0.0690496050178534
0.0697952592128824
0.0698351943296426
0.0704878652677375
0.0692170940896385
0.0689131103650463
0.0695568406053591
0.0694811426974705
0.0688952289694821
0.0690639101343048
0.0688916526903692
0.06799102640045
0.068423160126586
0.0682348094266426
0.0684768043132787
0.0676196894192325
0.0686138950126046
0.0689244352489037
0.0687050901299822
0.0690084778080556
0.0673520645322877
0.0679946026795629
0.0680148682612024
0.0670117219700482
0.0680917582621286
0.0692743145554441
0.0688725792017674
0.0691545092051636
0.0692319952526087
0.0693410717655506
0.06865621431544
0.0689631782726262
0.0686907850135308
0.0680941424482039
0.0676536640708046
0.0682544789617633
0.0685548864072426
0.069106825483659
0.0695180975816366
0.0696390950249547
0.0691920601358485
0.0691264950187796
0.0687986694334351
0.069125302925742
0.0686830364087863
0.0688266836198191
0.0689154945511215
0.0689691387378143
0.0687015138508694
0.0682818971016284
0.0671839794139838
0.066797741269796
0.0669139703409636
0.0673139175550839
0.06705582941244
0.0672429880193458
0.0672519287171279
0.065806515909018
0.066223152425665
0.0649732428757242
0.0651484805522538
0.0650507289231693
0.0654947835796813
0.0655758459062393
0.0659769852133972
0.0662505705655301
0.0654316026486877
0.065383918927183
0.0669664224346188
0.0651878196224951
0.0649249631077007
0.0649517852010471
0.0649368840380769
0.0642103033316497
0.0643539505426825
0.0643277244958549
0.065642007069827
0.0663250763803812
0.0655329305568851
0.0651872235759763
0.0646007138014691
0.0643450098449004
0.0647825079897056
0.0647455531055395
0.065657504279316
0.0658953268403204
0.0657671768387767
0.0654697496258914
0.0639516191424869
0.0644701796138501
0.0636392907666315
0.0630790070389518
0.0642824249604255
0.0644564705439175
0.0646269398482966
0.0653874952062959
0.0652766305537976
0.0644856768233391
0.0645649510103406
0.0647664147336977
0.0642502384484099
0.0645399170565506
0.0648355561298795
0.0649923163643261
0.0654220659043867
0.0652235824136236
0.0646853524071398
0.0638848619323804
0.0637668447216564
0.0635081605324937
0.0629824475029048
0.0636798219299104
0.0647264796169376
0.0650590735744326
0.0649482089219342
0.0644791203116322
0.0638634042577033
0.0634676293692147
0.0631022528531853
0.0639534072820434
0.0637018756511063
0.0642162637968378
0.065063841946583
0.0641197042607909
0.063416965415116
0.06300986564277
0.0623864009840966
0.0623083188901328
0.062776811453916
0.0633001402974296
0.0616347863238795
0.0625324323812047
0.0620949342363994
0.0602805686331473
0.0589233707098211
0.0579017469765838
0.0546342199604773
0.0555771655532319
0.0564396448659474
0.0571256944090956
0.0589841674547395
0.059862143976944
0.0595986914156307
0.0596416067649849
0.0595367025776747
0.0590401958275075
0.0601220202591443
0.0616651846963387
0.0631690100632918
0.0618785693500721
0.0609952284091983
0.0579774448844725
0.0533336464564379
0.0494682847819668
0.0447630935624949
0.0421208193446182
0.037680868826016
0.0358247799664473
0.03613353206319
0.0363314195074343
0.0359231276420507
0.0374990746377796
0.042407517720165
0.0477069673188886
0.0499254524618927
0.0535333220402386
0.0565248795181369
0.0579428741863816
0.0585234234957008
0.0605392528223101
0.060750849336487
0.0599509549082464
0.059601075601706
0.0581502983749269
0.0566959448690349
0.0563901730048863
0.05590320299902
0.0569027730110613
0.0576281616244509
0.0583607027960661
0.0577294895326483
0.057640082554827
0.0577080318579712
0.0568902560341663
0.0567102499854863
0.0570285388265298
0.0573748418539574
0.0574874946460121
0.0579476425585321
0.058218247678071
0.0584119627966836
0.058659322101989
0.05791366790696
0.0577938625566796
0.0578647920924177
0.0573688813887693
0.057972676512322
0.0585037539605801
0.0588405202437067
0.0587809155918259
0.0586575339624326
0.0582325527945224
0.0582325527945224
0.0568014451028639
0.0575208732510654
0.0572240420846989
0.0559270448597723
0.0580477783736918
0.0578039953474993
0.0570607253385455
0.0569778748724311
0.0568425723126617
0.0559300250923664
0.0557899541604464
0.0555604762507053
0.0548601215911056
0.0546801155424256
0.0551456278736148
0.0553566283412729
0.0553166932245127
0.0555163688083135
0.0548917120566025
0.0544190471671876
0.0571376153394717
0.0634920672764858
0.0743264048488623
0.0886368857189281
0.102873456820662
0.117126121178403
0.127661243398338
0.12787522409859
0.109084261546643
0.0781470630344228
0.0463527496281564
0.00911474336561482
-0.0554817981102226
-0.131338850419384
-0.203556442684703
-0.286123190656089
-0.369008823515037
-0.44050400739956
-0.493115841521721
-0.538003508806647
-0.594638060884245
-0.622019841911774
-0.606582237074642
-0.57159490246712
-0.515122475042638
-0.442031674627265
-0.339646975952026
-0.237712888445006
-0.169466158087988
-0.135219709303344
-0.106104028952602
-0.0793057774669859
-0.0523656669098934
-0.029629472449955
-0.0276505980075119
-0.0318217315461316
-0.0223428037575249
-0.0147205608750058
-0.00869989498852432
-0.00537633959964986
3.57627911284913E-05
0.00968515988411425
0.0196480774459931
0.0261867077573189
0.0299763715239014
0.0333535710994686
0.0361722750869125
0.0372874781236026
0.0398021983864544
0.0412106563103981
0.0423222830679754
0.0431674770316454
0.0442767196031475
0.0458699519479217
0.047180658242781
0.0455105358970804
0.0467336233536748
0.0464385803268648
0.0476306733644811
0.0468152817267515
0.0468927677741966
0.0480949936026327
0.0481021461608584
0.0478875694140875
0.0483638105826152
0.0476646480160532
0.0466787870739445
0.0463581140468257
0.0465893800961232
0.0462895686971627
0.0454598719429817
0.0469279345188063
0.0466620977714178
0.0459015424134186
0.0443732791391944
0.0445312314666786
0.0436788849447828
0.043731337038438
0.0421446612053706
0.0424420884182559
0.0431460193569683
0.0427830270270141
0.0412982751486629
0.041086678634486
0.0409859467728075
0.0384736106960309
0.0376999423146179
0.0370311781205151
0.0364780469510611
0.0352287334476392
0.0357300085699568
0.0356698078715572
0.0350612443758541
0.0346040766959282
0.0346660655338842
0.033890012966396
0.0325644055085666
0.0324362555070228
0.0315439738683669
0.0309211052562124
0.0309228933957688
0.0293791329120556
0.0292921101203096
0.0272643598633242
0.0258350403112221
0.0249451428586415
0.0234866170271179
0.0227057960874791
0.0211918379297063
0.0207185769937726
0.0199419283797656
0.0185751937121384
5.96046518808188E-06
5.96046518808188E-06
0.0152772683235727
0.0138402001667261
0.0122421994498014
0.0113010419966033
0.00982582686255298
0.00839054684526287
0.00707209194565915
0.00598251890927779
0.00457108075274
0.00337958376164243
0.000173449536973183
-0.00064492233335046
-0.00254452258879216
-0.00550150936859958
-0.00769794079040775
-0.00935256592661928
-0.0115937008373381
-0.013915302028096
-0.0151503104150665
-0.0178706667269071
-0.0205582404802132
-0.0224685695729935
-0.0259184868238553
-0.0272941621892646
-0.0295639073328861
-0.0313055552608437
-0.0335973541256612
-0.0345963280911837
-0.0369524999800324
-0.039281253729016
-0.0412237693338119
-0.0423932126037136
-0.0455093438040428
-0.0456821972944972
-0.0468307789362405
-0.0489318429150394
-0.0511157573599526
-0.0521868529542509
-0.0546372001930714
-0.0542652671653351
-0.0565964051003939
-0.0577390262769492
-0.0592207979227064
-0.0592553686207972
-0.0595200132751481
-0.0597429346731823
-0.0595063042052155
-0.0607121063127644
-0.0605475974735734
-0.0603383851454717
-0.0577020713927831
-0.0572991439460688
-0.0546151464718755
-0.0535255734354941
-0.051667696436369
-0.0505387843297463
-0.0464654024202111
-0.0437945179694316
-0.0418007423640182
-0.0389808462835367
-0.0365287109051598
-0.0322812834121327
-0.0290781294200575
-0.0244057207591201
-0.0203079009423138
-0.0186854623181179
-0.0139594094704878
-0.0105565798946118
-0.00675141891854035
-0.00331461469109234
-0.00179708025420669
0.00241518049421078
0.00440537982051132
0.00818371870323643
0.012007357121391
0.0149875897154319
0.0176650306779183
0.0183314106859458
0.0217461611921979
0.0241571693607771
0.0241160421509793
0.0265955956692214
0.028855804068542
0.028855804068542
0.028855804068542
0.0329774657461006
0.0345569890209423
0.0351792615865781
0.0359648508983673
0.03604352903885
0.0363135381118701
0.036438111834301
0.0382369802280641
0.0398302125728384
0.03933430186919
0.0399273681554041
0.0399273681554041
0.0399273681554041
0.0408142853753907
0.0404614258362562
0.0411140967743512
0.0415521909656752
0.041217212822105
0.0416809370137378
0.0420510819019177
0.0422811558581776
0.0413459588701676
0.0413459588701676
0.0413459588701676
0.0413996030568603
0.0419729998079538
0.0415891458498413
0.042202477717695
0.0430578044721847
0.0417614032937769
0.0417614032937769
0.0417614032937769
0.0427234223751333
0.0420278360876842
0.0428468040045266
0.0416916658510763
0.0424456646973687
0.0414061595685672
0.0416964342232268
0.0417155077118287
0.0420725395765948
0.0415694763147207
0.043718820061543
0.0430899909842004
0.0445270591410469
0.0433743051736719
0.0438869051798469
0.0429827026108149
0.0423711588825177
0.0425595095824611
0.0428003123760596
0.0427013686539374
0.0446498447239214
0.044010882855759
0.0438326649466354
0.0440496258794815
0.0448256784469698
0.0431543640082316
0.04145980375526
0.0437152437824301
0.0418174316665449
0.042671566327997
0.0435966305251873
0.0426769307466663
0.0423693707429613
0.0435489468036827
0.0422358563227482
0.0429862788899277
0.0431048921471706
0.0439482979712841
0.0447982603071046
0.0445580535600249
0.0438743882029519
0.042842631678895
0.0432699970328804
0.0438427977374551
0.0434106640113192
0.0434464268024477
0.0445401721644607
0.0452280098471653
0.0449591928671828
0.0470858868462904
0.0463521535816376
0.0451952272886309
0.0457221324112573
0.045524244967013
0.0467240866093739
0.0463920886983977
0.0471597966146227
0.047404175687334
0.047298675453505
0.0474625882461772
0.0479602870893821
0.0480330047646767
0.0478786287163053
0.0461441333465735
0.0479942617409541
0.048756009191991
0.0485879240736871
0.0492000638485031
0.0500530064169176
0.0511121810808398
0.0501626789763783
0.0502920210709597
0.0498575031587485
0.0496470987376092
0.0499814808346606
0.0512313903846014
0.0517255129486934
0.0519591631840662
0.0510549606150342
0.0512135089890372
0.051801210856582
0.0520771803947902
0.0512415231754211
0.0511545003836751
0.051611668063601
0.0513750375956342
0.0507807792163824
0.0520479741153686
0.0528216424967816
0.0526273313316502
0.0528001848221046
0.0539904897201645
0.0539487664638479
0.0535935227386383
0.0544142787950371
0.0557154483455954
0.0553631848529798
0.0550586050818688
0.055396563458033
0.0543671911200513
0.0549411839176636
0.0537663762290926
0.0540030066970595
0.0544095104228867
0.0554049081092963
0.0551229781059001
0.0549578732201902
0.0542962615843131
0.0549888676391682
0.0548243587999772
0.0551110571755239
0.0545322960057611
0.0539439980916975
0.0545179908893098
0.0551712578739235
0.0555223292735016
0.0555837220649388
0.0556159085769544
0.0554126567140408
0.0554174250861913
0.05537808601595
0.0545322960057611
0.0528365436597519
0.0532233778504584
0.0536990229724673
0.0534641806440569
0.0532901350605649
0.0543022220495012
0.0545072620519712
0.0548178022882703
0.0550133055464394
0.0545603101921451
0.0547832315901794
0.0554192132257477
0.0566756792873954
0.0559014148594636
0.055977708813871
0.0541549985593556
0.0542372529789511
0.0539559190220736
0.0537729327407995
0.0541615550710625
0.0542849367004557
0.0550770825239518
0.0554144448535973
0.0547105139148848
0.0550788706635083
0.0552856988055347
0.054610378099725
0.0560152597445559
0.0558179683468304
0.0548672741493313
0.0558203525329056
0.0570052930122963
0.0562554664916356
0.055601603460503
0.0560325450936014
0.0547784632180289
0.0550085371742889
0.0535440508775772
0.0527089897047269
0.0541555946058744
0.0547695225202468
0.0545877283320103
0.0546878641471701
0.0552946395033168
0.053004032731537
0.056661374170944
0.0545024936798207
0.0534027878526196
0.0543737476317582
0.0556612081123839
0.0557112760199637
0.0562447376542971
0.0560349292796766
0.0549346274059567
0.0547975367066308
0.0546813076354632
0.0545024936798207
0.0536227290180599
0.0534045759921761
0.0525695148193258
0.0547415083338628
0.0545972650763112
0.0539374415799906
0.0532954994792342
0.052537924353829
0.0519210162068625
0.0514715971316811
0.0526142183082364
0.053255564362474
0.0550967520590725
0.0546622341468613
0.0550836390356587
0.055713660206039
0.0547701185667656
0.0536203448319846
0.0542455976302144
0.054246789723252
0.0542151992577552
0.0550842350821775
0.0539004866958245
0.0538462464626129
0.0536811415769031
0.0538075034388904
0.0552421874096617
0.0542223518159809
0.0541222160008211
0.054128772512528
0.0555908746231645
0.0553548402017164
0.0562965937014334
0.056139237420468
0.0554418629934624
0.0555688209019686
0.0535017315747418
0.0530415836622219
0.0522536101643574
0.0533360306425131
0.0552392071770677
0.0539296929752461
0.0538742606489969
0.0541168515821518
0.0543254678637347
0.0534558359927936
0.0535708729709235
0.0534915987839221
0.0527209106351031
0.0537318055310018
0.0546449487978159
0.0546753471702751
0.0556093520652475
0.0571769544097131
0.0553417271783027
0.0544911687959634
0.0534945790165161
0.0542944734447567
0.0538921420445612
0.0545209711219038
0.0555914706696833
0.054970986243604
0.05633831695775
0.0558960504407943
0.0535506073892841
0.0543952053064353
0.0549942320578375
0.0544774597260308
0.0550806588030647
0.0546044176345369
0.0547403162408252
0.0559479064879306
0.0553309983409641
0.0546854799610949
0.0547772711249913
0.054868466242369
0.0544762676329932
0.0544983213541891
0.0553458995039343
0.0565397806811071
0.055412060667522
0.0570333071986803
0.0566911764968844
0.056120759978385
0.0545281236801295
0.0552880829916099
0.0550574129888312
0.0537121359958811
0.0562709637011246
0.0553613967134233
0.055685646019655
0.057901150930065
0.0570064851053339
0.0569909878958449
0.0558662481148539
0.0560832090477001
0.0567233630089
0.0559979743955105
0.0556510753215641
0.0551384753153891
0.0557959146256345
0.0563359327716747
0.0546348160069962
0.0537353818101146
0.0548923081031213
0.0548809832192639
0.0558483667192896
0.0560945339315574
0.0557893581139276
0.0572025844100218
0.0578039953474993
0.0573229858068211
0.0571727820840814
0.0547874039158111
0.0538235966948982
0.0546699827516058
0.0548720425214818
0.0573706695283257
0.0552952355498356
0.0547599857759459
0.0543809001899839
0.0534862343652528
0.0543630187944196
0.0547015732171027
0.0549691981040476
0.054156786698912
0.0538683001838088
0.0548011129857436
0.0544422929814211
0.0540477101859701
0.0536137883202777
0.0548213785673831
0.0552219218280222
0.0539642636733369
0.0538307492531239
0.0529331031957988
0.05345762413235
0.0537979666945895
0.05325258412988
0.0533235136656181
0.0522404971409437
0.0511574806162692
0.0492525159421582
0.0463122184648774
0.0445884519324841
0.0453639084534536
0.0463491733490435
0.0472015198709392
0.0470721777763579
0.0487899838435631
0.047867303832448
0.0472772177788279
0.0473225173142573
0.047795778250191
0.0496059715278115
0.0512558282918725
0.0554663009007336
0.055977708813871
0.0567185946367496
0.0542527501884401
0.0501722157206793
0.0475800094103824
0.0435394100593817
0.04113972677466
0.0386041448836499
0.034157041806822
0.0301337278048668
0.0297856366378828
0.0277406010318519
0.0292313133753912
0.0355827850798112
0.0411611844493371
0.0452053600794506
0.0484091101180446
0.0542974536773507
0.0571733781306002
0.0569915839423637
0.0577002832532267
0.0572317906894434
0.0559824771860215
0.0564277239355712
0.0554764336915533
0.0545293157731671
0.0558209485794244
0.0572109290612851
0.0568646260338576
0.0578689644180494
0.0575256416232159
0.0574469634827332
0.0578200886035071
0.0581091711651291
0.0585126946583622
0.0579387018607499
0.0598055195576572
0.0587302516377272
0.0597244572310993
0.0585144827979187
0.0601011586309861
0.0609582735250322
0.0613141132967607
0.061235435156278
0.0613564325995961
0.0612497402727294
0.0615340544622009
0.0609821153857846
0.0609392000364304
0.061555512136878
0.0593668293198144
0.0596213411833455
0.0606811118937864
0.0597363781614754
0.0614732577172825
0.061919100513351
0.0628882721529331
0.0635612086726676
0.0622534826104024
0.0614166332979957
0.0606989932893507
0.0608420444538646
0.0604361367745563
0.0600218844439846
0.0604993177055499
0.0615429951599831
0.0602740121214404
0.0594872307166136
0.0585711072172054
0.060225732353417
0.0584763358207149
0.0589644979196188
0.0579112837208848
0.0574117967381235
0.0606727672425231
0.0657248575359413
0.0771480890689002
0.0897705661977012
0.105106843126636
0.117895617234184
0.13015569807955
0.133958474869546
0.12136341588061
0.095809113479747
0.0678873143061774
0.0329029599312496
-0.0233614472581681
-0.0233614472581681
-0.0233614472581681
-0.170770903917659
-0.25335493723809
-0.340773503872574
-0.409346271675381
-0.463627036050205
-0.507311881460176
-0.546285575185487
-0.565932460538442
-0.557977027651909
-0.535079900631893
-0.477051195746803
-0.376182243368893
-0.2482784090374
-0.146420615484788
-0.0840377907798041
-0.0393509911717166
-0.0232446221404817
-0.0224554565495797
-0.0152194518112483
-0.00176608583522866
0.00139594094704878
0.00882744894354927
0.0150108355296654
0.0173920413723041
0.018122794404363
0.0212198521160903
0.0279754433602623
0.0338709394777941
0.0345075171598813
0.0348824304202116
0.0364530129972712
0.0370556160277863
0.0420320084133158
0.0445199065828212
0.04664600451541
0.0479245242982536
0.0508618415429403
0.0504237473516163
0.051801210856582
0.0516784252737075
0.0507319034018401
0.0514924587598394
0.0508868754967303
0.0518876376018092
0.0533741776197168
0.0533348385494755
0.0533515278520021
0.0521761241169124
0.0517541231815962
0.05121708526815
0.0500786364172264
0.0503981173513076
0.0480806884861813
0.0472480114994063
0.0468874033555273
0.0455278212461258
0.0453460270578894
0.0465661342818897
0.046776538703029
0.0455439145021337
0.047180658242781
0.0452160889167892
0.043749814480521
0.045552259153397
0.0456923300853169
0.0448823028662566
0.0443416886736976
0.0433331779638741
0.0414228488710939
0.0409340907256711
0.0405192423485806
0.0407987881659017
0.0393801974511382
0.0388538883750306
0.0376248404532481
0.0385838793020105
0.0382190988324998
0.0356560988016246
0.0343918841352325
0.0327616969062921
0.0321227350381297
0.0334411899377334
0.0324451962048049
0.0315606631708936
0.032075051316625
0.0328636208610083
0.0306016243221312
0.0303852594358038
0.0278234514979662
0.0255864889128791
0.0241893558727927
0.0232523707452262
0.024297240292697
0.0235599307489313
0.0232911137689488
0.0211882616505935
0.019698145353573
0.0182396195220494
0.0162500162422676
0.0137919203987027
0.0134968773718926
0.0118011250258833
0.0111222280409608
0.00783622358277125
0.00713884915576567
0.00626444891267406
0.00390052841908078
0.00220000770092102
0.00133335606257392
-0.00155508536757056
-0.00300169026871804
-0.00604868007286549
-0.00745534985725282
-0.00941753499716937
-0.0112092508327068
-0.0139045731907574
-0.0155663508851946
-0.0177925846329432
-0.0193095230233101
-0.0210338856022222
-0.0232315091170679
-0.0249648123937622
-0.0278323921957484
-0.0301319396653103
-0.0333768169137021
-0.0337487499414384
-0.0364875836953621
-0.0364875836953621
-0.0364875836953621
-0.0418424656203348
-0.0421607544613784
-0.0453448349648517
-0.0448417717029776
-0.0465923603287173
-0.0468564089365493
-0.0483185110471858
-0.0509494603812051
-0.0517088236461668
-0.0547182625196293
-0.0543528860035999
-0.0555992192744278
-0.0570386716173496
-0.0566947527759973
-0.0561225481179414
-0.0577962467427548
-0.0566476651010114
-0.0578051874405369
-0.056164271374258
-0.0561404295135056
-0.0570750304549969
-0.056167251606852
-0.0526493850528461
-0.0508946241014748
-0.0491559564061113
-0.049470668968042
-0.0479006824375012
-0.0457632596210551
-0.0414264251502067
-0.0396555709428276
-0.0367605730009762
-0.0340646545964068
-0.0292766129108206
-0.0251221686747275
-0.0212967421170166
-0.0176447650962788
-0.0148612278534446
-0.0117665543277924
-0.00929355732125727
-0.00488340912859549
0.00045716767992588
0.00439107470405992
0.0069004305482424
0.0105983031509284
0.0127875820145109
0.014598967385169
0.0159460325176755
0.0187140725510207
0.0215828444460445
0.0226706293428694
0.024663808901764
0.0291520391883897
0.0309217013027312
0.0324434080652485
0.0346642773943278
0.0372231050995714
0.0372636362628503
0.0388491200028801
0.039989953039879
0.0411158849139076
0.0432747654050309
0.0446796470498618
0.0447493844925624
0.0448489242612033
0.0465661342818897
0.0467848833542923
0.0480687675558052
0.0473445710354532
0.047385698245251
0.0472444352202934
0.0487399159359832
0.0477665719707694
0.0478601512742223
0.0480377731368271
0.046487456141407
0.045626764968248
0.0454622561290569
0.0447797828650216
0.0463843400936532
0.0467324312606372
0.0458741242735534
0.0484526215139176
0.0482642708139742
0.0460726077643165
0.0447744184463523
0.044069891461121
0.0459402854371411
0.0448304468191203
0.045875316366591
0.0440686993680834
0.0430882028446439
0.0433760933132283
0.0433772854062659
0.042615537955229
0.0427329591194343
0.0424099019062402
0.0408864070041665
0.0403982449052626
0.0425827553966946
0.0427347472589907
0.0422257235319285
0.0422424128344551
0.0421994974851009
0.041503315151133
0.0398421335032145
0.0395876216396834
0.0395876216396834
0.0395876216396834
0.0396680879197225
0.0403177786252235
0.041462783987854
0.0415849735242097
0.0419402172494194
0.041043167238613
0.0412780095670235
0.040950183981679
0.0404268551381654
0.0397115993155955
0.0416481544552033
0.0401920128097549
0.0409275342139643
0.0400447893196093
0.0391286658202011
0.0375932499877512
0.0384032772068116
0.0401914167632361
0.040487055836565
0.0404268551381654
0.04134476677713
0.0413346339863102
0.0419127991095542
0.042656069118508
0.042423014929654
0.0431430391243743
0.0428474000510454
0.0416135837571125
0.0434869579657266
0.0443178468129452
0.044268970998403
0.0452333742658346
0.0442606263471396
0.0448507124007597
0.0452876144990461
0.0438785605285836
0.043982868669375
0.0440204196000599
0.043588285873924
0.0437140516893925
0.0445157342571895
0.0448733621684745
0.0463408286977802
0.0442266516955676
0.0460219438102178
0.0464773233505873
0.0469827707985366
0.0474673566183277
0.0471943673127135
0.0469392594026636
0.0469261463792499
0.047326689639889
0.0474119242920785
0.0485092459332044
0.0469404514957013
0.0478297529017631
0.0471162852187497
0.0459617431118182
0.0456088835726838
0.0471103247535616
0.0485491810499646
0.0500607550216621
0.0480210838343005
0.0481736717431154
0.0483822880246983
0.0453949028724316
0.0477504787147616
0.0484520254673988
0.0478994903444636
0.0468421038200979
0.0475996789455031
0.0488001166343828
0.0499707519973221
0.0495117961778398
0.0499391615318252
0.0496375619933083
0.0499993622302249
0.0502997696757042
0.0507760108442319
0.0494289457117254
0.0502812922336211
0.0511449636393742
0.0512749017804744
0.0493866264088901
0.0505948127025143
0.0506168664237102
0.0508236945657366
0.0517046513205351
0.0530976120349898
0.0526338878433571
0.0522142710941161
0.05176723620501
0.0503987133978264
0.0504475892123686
0.0506240189819359
0.0501883089766871
0.0507056773550126
0.0520533385340379
0.0514805378294632
0.0522494378387258
0.0514870943411701
0.0514042438750558
0.0498765766473504
0.0491696654760439
0.048986083148251
0.0477778968546268
0.0485265312822498
0.0488960801239109
0.0490021764042588
0.0509816468932208
0.0497704803670025
0.050390368746563
0.0495928585043977
0.0501447975808141
0.0510037006144167
0.0512260259659321
0.0508260787518118
0.0513422550370997
0.0522506299317634
0.052960521335664
0.0520110192312025
0.0488871394261288
0.0482392368601843
0.04900158035774
0.0497436582736562
0.0498485624609664
0.0518411459733422
0.050850516659083
0.0513857664329727
0.0521397652792651
0.0523865285380517
0.0513094724785653
0.0511789382909463
0.0509673417767694
0.0507259429366521
0.0513184131763474
0.0508982003805876
0.0519460501606524
0.0524783197019481
0.0530487362204476
0.0508135617749169
0.0509440959625359
0.0502842724662152
0.0496798812961437
0.0499588310669459
0.0506633580521772
0.0498384296701467
0.0510811866618617
0.050415402700353
0.050048834091286
0.0486278591904472
0.0499039947872156
0.0500786364172264
0.0507026971224185
0.0499570429273895
0.0495940505974353
0.0496810733891813
0.0498741924612752
0.0500667154868502
0.0503706992114424
0.0496846496682942
0.0487268029125694
0.0503605664206226
0.0493931829205969
0.04950166338702
0.0499731361833973
0.0507724345651191
0.0509554208463932
0.0504368603750301
0.0492799340820234
0.049470668968042
0.0489616452409798
0.0488567410536696
0.0483340082566748
0.0482934770933958
0.04673600753975
0.0465166624208286
0.0493741094319951
0.0496608078075418
0.0498479664144476
0.0493449031525735
0.0495952426904729
0.0497567712970699
0.0487053452378923
0.0497740566461154
0.0514113964332815
0.0492560922212711
0.0497305452502424
0.0495308696664416
0.0498020708324994
0.0500220119979396
0.0495147764104338
0.0499069750198096
0.0499945938580744
0.0502049982792137
0.0501716196741604
0.0494533836189966
0.0495964347835105
0.0482946691864335
0.0498026668790182
0.0492352305931128
0.0499194919967046
0.0506472647961694
0.0500738680450759
0.0513571562000699
0.0524282517943682
0.0517898859727247
0.0503522217693593
0.0504297078168044
0.0514841141085761
0.05133212224628
0.0506895840990048
0.0522035422567776
0.0519794287657057
0.052500373423144
0.0532931152931589
0.0526791873787865
0.0514876903876889
0.0513094724785653
0.0516486229477671
0.0501066506036104
0.0521165194650316
0.0528782669160684
0.0528460804040528
0.0535810057617433
0.0526070657500107
0.0514918627133206
0.0525909724940029
0.051813727833477
0.0509333671251973
0.0513768257351906
0.0518477024850491
0.0519686999283671
0.0505900443303638
0.0507128299132383
0.0519293608581258
0.051363116665258
0.0518876376018092
0.0516372980639098
0.0515437187604569
0.0505697787487243
0.0519347252767951
0.0525510373772427
0.0520861210925723
0.0513500036418442
0.0502806961871023
0.0505662024696115
0.0513744415491154
0.0503641426997355
0.0494128524557176
0.049281126175061
0.050157314557709
0.0518363776011917
0.0504350722354737
0.0504165947933906
0.0502193033956651
0.0492519198956394
0.0479567108102692
0.0484436808161355
0.0504005015373828
0.0494951068753131
0.0483977852341873
0.0482893047677642
0.0467419680049381
0.0480049905782927
0.0471675452193672
0.0477880296454465
0.0480467138346092
0.0488579331467072
0.0484430847696167
0.046692496143877
0.0472813901044595
0.0451499277532015
0.0425875237688451
0.040577058860905
0.0381559179015062
0.0378859088284861
0.0378817365028544
0.0384688423238805
0.0384604976726172
0.0395804690814577
0.0405758667678674
0.0407773304912246
0.0404501009523989
0.0405579853723032
0.0414741088717114
0.0414741088717114
0.0414741088717114
0.0445991807698227
0.0457507426441601
0.0475746449917132
0.0440740637867527
0.0416874935254447
0.0376135155693907
0.0357359690351449
0.0299167668720206
0.0276052984720824
0.0236314563311882
0.0190192483686505
0.0185239337115209
0.0180125257983835
0.0186342023175004
0.0238126544729059
0.0287765298815405
0.0329810420252135
0.0360375685736619
0.0413811256147773
0.0437772326203862
0.0454884821758845
0.0464797075366625
0.0451630407766152
0.0449407154250998
0.0439965777393076
0.0431704572642395
0.0431227735427348
0.0425750067919501
0.0429463437731676
0.0432747654050309
0.0434470228489665
0.0444823556521363
0.0442934089056741
0.0443416886736976
0.0457495505511225
0.0448805147267002
0.044113402856994
0.0453251654297311
0.0453841740350931
0.0465595777701828
0.0470340307991541
0.0469482001004458
0.0475883540616458
0.0479501542985623
0.0485712347711605
0.047053104287756
0.0464063938148491
0.0468987282393847
0.0462120826497176
0.0471055563814111
0.0477749166220327
0.047488218246486
0.0472790059183843
0.047009592891883
0.0459295565998026
0.046254401952553
0.0449001842618208
0.0441223435547761
0.0454545075243124
0.0454634482220946
0.0451976114747061
0.0454074198493266
0.0460255200893307
0.0455433184556149
0.0448793226336625
0.0451445633345322
0.0444936805359936
0.0436794809913017
0.0423169186493061
0.0427854112130894
0.0498986303685463
0.0583624909356226
0.0702607715440716
0.0835424761226745
0.0963169451137716
0.1101857555134
0.117899193513297
0.110611928774348
0.0875806912876
0.0566524334731619
0.0281208787108515
-0.0183165095229756
-0.0854075056800253
-0.0854075056800253
-0.0854075056800253
-0.236694840990882
-0.325045028334263
-0.400310206450249
-0.463206823254445
-0.50925499311149
-0.551226800826407
-0.592264007599832
-0.601369214221145
-0.583705971682784
-0.543980663297255
-0.468388255642445
-0.360349459689791
-0.248760610671116
-0.170250555306739
-0.112170590421032
-0.086990009187461
-0.0736862508876623
-0.0661432821921447
-0.0454354340357106
-0.0325024166706105
-0.0214099909555901
-0.0154203194880866
-0.0100415957023615
-0.00579476425585321
-0.000631213263417871
0.00319242515473666
0.0104415429164818
0.0128674522480312
0.0157576818177321
0.0191938899986613
0.0224083688745938
0.0249820977428076
0.027616027309421
0.0307554043239837
0.0318312682904325
0.0320863762004824
0.0338780920360198
0.0348424953034515
0.0351291936789982
0.035101775539133
0.0354039711241688
0.035682920894971
0.0356221241500526
0.0364756627649859
0.0368595167230984
0.0369495197474384
0.0374412581254552
0.0368911071885952
0.0364530129972712
0.0356102032196764
0.0355011267067345
0.0362414164830943
0.0347018283250127
0.0348365348382634
0.0351905864704354
0.0349819701888526
0.0352835697273695
0.0329548159783859
0.0340879004106403
0.033759478778777
0.0333297292387163
0.0331825057485707
0.0344818871595725
0.0335907976139543
0.0327503720224347
0.0317937173597476
0.0304627454832489
0.0304508245528727
0.0288063322074809
0.0277107987059115
0.0277018580081294
0.0282865796430802
0.0277924570789882
0.0266319545068687
0.0253802568173715
0.0250124961152668
0.0233513144673484
0.022519829573611
0.0235277442369156
0.0224041965489622
0.0220555093354594
0.0217050339824002
0.0206792379235313
0.0212281967673536
0.021006467462357
0.0194966816302158
0.0185668490608751
0.017308594859671
0.0169986506698907
0.0153839606504393
0.0143212097074043
0.0143575685450516
0.0133132950440997
0.0124895587551068
0.0124222054984815
0.0108796371078059
0.00886142359512134
0.00707149589914035
0.0056558854169709
0.00400304842031579
0.00388503120959177
0.00193715118612661
0.000801682567797013
-0.000581741402356792
-0.00217437770061227
-0.00453889424072435
-0.00683367333813588
-0.00911891569124647
-0.00992655872423157
-0.0116878761873098
-0.0129938141100185
-0.016447903686512
-0.0160974283334527
-0.0188189767383309
-0.0213682676992736
-0.0235742358653827
-0.0251644879775629
-0.0291806494212925
-0.0309276617679193
-0.0323259869010433
-0.0344419520428124
-0.0354504627526358
-0.0370514437021546
-0.038625602558327
-0.0419765760870667
-0.0445973926302663
-0.0460606868339404
-0.0489157496590316
-0.0504440129332558
-0.0513440431766561
-0.0521397652792651
-0.0543165271659526
-0.0560325450936014
-0.0570803948736662
-0.0594496797859287
-0.0620281770262929
-0.0620335414449622
-0.0634855107647789
-0.0637114123954072
-0.0643748121708408
-0.0654047805553413
-0.0652623254373462
-0.0664162714977588
-0.0673496803462124
-0.0689184747837156
-0.0683212361718698
-0.067493923603764
-0.0674545845335227
-0.0658834059099443
-0.0653117972984072
-0.0634801463461097
-0.0617200209760691
-0.0613355709714378
-0.0590932439676814
-0.0561511583508442
-0.0538134639040785
-0.050446397119331
-0.0475853738290517
-0.044517522396746
-0.041813855387432
-0.0372195288204585
-0.0334280769143196
-0.0305157936234228
-0.0282186303399361
-0.0242978363392158
-0.0218230511931242
-0.018681886039005
-0.0151848811131574
-0.0108939422242573
-0.00772535893027293
-0.00406980563042231
-0.00136554257458956
0.00151038187865995
0.00426352074903497
0.00618100240004091
0.00840604405475188
0.0111180557153291
0.0142025964501615
0.0166386385725306
0.0186431430152825
0.0211268688591562
0.0228416946937674
0.024064186103843
0.0261575014778973
0.0268197091602932
0.0280886921988359
0.0293308531440321
0.0310182608387781
0.0310212410713722
0.0310426987460493
0.0325912276019129
0.0319671668967208
0.0320571699210608
0.0322943964355464
0.0327533522550288
0.0339812080837736
0.0335973541256612
0.0331777373764202
0.0352108520520749
0.0339442531996075
0.0344210904146541
0.0326567927189818
0.0327622929528109
0.0336152355212254
0.0341528694811904
0.034026507619203
0.0345838111142887
0.0354248327523271
0.0353920501937926
0.0351220411207725
0.0339967052932626
0.0336355011028649
0.0335902015674355
0.0327450076037654
0.032696727835742
0.0330656806308842
0.0339585583160589
0.0338321964540716
0.0326484480677185
0.0329679290017997
0.0317633189872884
0.0317710675920329
0.0310397185134552
0.030732754556269
0.0305974519964995
0.0315302647984344
0.0315856971246835
0.0321567096897018
0.0314521827044705
0.0301635301308072
0.0296920573344299
0.0307858026964429
0.0299739873378262
0.0297296082651148
0.0302362478061018
0.0299078261742385
0.0297993457078154
0.0303250587374042
0.0301408803630925
0.0301879680380783
0.0284308229006318
0.0281935963861461
0.0278270277770791
0.0280267033608798
0.0275677475413975
0.0278466973121997
0.0289106403482724
0.0285977159258981
0.0287306342995923
0.0279027256849677
0.029132369653269
0.0284695659243543
0.028197172665259
0.0287115608109904
0.0298392808245755
0.0298023259404094
0.0301414764096113
0.0307130850211483
0.0307542122309461
0.0302070415266802
0.0307554043239837
0.0317668952664012
0.032013062478669
0.0325429478338895
0.0327158013243438
0.0336635152892489
0.0338864366872831
0.0337559024996641
0.0328564683027826
0.0339371006413818
0.0338333885471092
0.0337100069177159
0.0338077585468004
0.0348693173967978
0.0366824909070123
0.0357723278727922
0.036031012061955
0.0366944118373885
0.0366455360228462
0.0365418239285736
0.0354200643801766
0.036049489504038
0.0373446985894082
0.0378352448743874
0.0385028169754525
0.0383549974387881
0.0377631232456116
0.0382238672046503
0.0384587095330607
0.0394290732656805
0.0380826041796928
0.0380474374350831
0.0387781904671419
0.0388288544212406
0.0386709020937564
0.0389683293066417
0.0376772925469032
0.0377643153386492
0.037488345800441
0.0377970978971836
0.0378274962696429
0.0387626932576529
0.0398689555965609
0.0397026586178134
0.0397467660602052
0.0396299409425188
0.0390261458189661
0.0385934160463114
0.0389808462835367
0.0386434839538913
0.0388234900025713
0.0392335700075114
0.038914685119949
0.039150719541397
0.0382727430191926
0.0385868595346045
0.0379842565040894
0.0372159525413457
0.0375658318478861
0.0378119990601538
0.0379961774344656
0.038072471388873
0.0384634779052112
0.0385838793020105
0.0383436725549308
0.037267808588482
0.037121777191374
0.0375920578947136
0.037805442548447
0.0377386853383404
0.0383222148802537
0.0392508553565568
0.0386029527906123
0.0382190988324998
0.0388014362813754
0.0388467358168049
0.0383091018568399
0.039088730703441
0.0383299634849982
0.0383919523229542
0.0389295862829192
0.0393444346600097
0.0393587397764611
0.0390863465173658
0.0386077211627628
0.0389564083762656
0.0380647227841285
0.0370198532366578
0.0376522585931133
0.0375491425453594
0.0384217546488946
0.0376981541750615
0.0384336755792708
0.0381827399948525
0.0374484106836809
0.0375896737086384
0.0381416127850548
0.0372123762622328
0.0377893492924391
0.038743619769051
0.0389993237256198
0.0392288016353609
0.0400668430408052
0.0385409639526563
0.0379973695275032
0.0389742897718298
0.0382661865074857
0.0392687367521211
0.0389403151202578
0.0389403151202578
0.0389403151202578
0.0413149644511896
0.0409698535167996
0.0401192951344603
0.0400561142034667
0.040023927691451
0.0401741314141907
0.0395417260577352
0.0405079174647233
0.0394332455913121
0.0400197553658194
0.0400197553658194
0.0400197553658194
0.0407940197937512
0.0405448723488894
0.0403189707182611
0.039032702330673
0.0404703665340384
0.0410896588670801
0.0407517004909158
0.0415587474773821
0.0414311935223572
0.0414031793359732
0.041102175843975
0.0411772777053449
0.0409930993310332
0.0403344679277501
0.0401121425762346
0.0412309218920376
0.0417852451545292
0.0414305974758384
0.0412535716597523
0.0415974905011047
0.0412100602638793
0.0414395381736205
0.0402903604853583
0.0414890100346816
0.0414890100346816
0.0414890100346816
0.0403702307188786
0.0410294581686804
0.0413972188707851
0.041086678634486
0.0411731053797132
0.0408297825848797
0.0404632139758127
0.0404632139758127
0.0404632139758127
0.0394511269868764
0.0395464944298857
0.0394856976849672
0.0395333814064719
0.0381726072040328
0.0408852149111289
0.0413018514277758
0.0407564688630663
0.0393027114036931
0.0393486069856414
0.0393194007062198
0.0392258214027669
0.0400662469942864
0.039641861872895
0.0396311330355564
0.0394594716381397
0.039045219307568
0.0385415599991751
0.0379741237132697
0.0382441327862898
0.0384986446498209
0.0380247876673684
0.0382584379027412
0.0388759420962265
0.0395870255931646
0.0385332153479118
0.0385308311618365
0.0379467055734045
0.0382065818556049
0.0371903225410369
0.037923459759171
0.037923459759171
0.037923459759171
0.0390768097730648
0.0391018437268548
0.0390970753547043
0.0391739653556306
0.0385838793020105
0.0385254667431673
0.0389677332601229
0.03857911092986
0.038697128140584
0.0388717697705948
0.0383013532520954
0.0388425634911732
0.0388515041889553
0.0388830946544522
0.0382655904609669
0.0377547785943483
0.0374114557995147
0.0370955511445464
0.0358080906639207
0.0377643153386492
0.0376302048719174
0.0377905413854768
0.0372326418438723
